# === DATA DESCRIPTION FILE ======================================================
#
# CAUTION - Investigational device.
# Limited by Federal Law to investigational use.
#
# Dataset name: XXXX_dti_high_iso_esV42
# Exported by Pati IBT Zuerich Switzerland (http://www.mr.ethz.ch/)
# CLINICAL TRYOUT             Research image export tool     V4.2
#
# === GENERAL INFORMATION ========================================================
#
.    Patient name                       :   XX
.    Examination name                   :   XX
.    Protocol name                      :   DTI_high_iso_E SENSE
.    Examination date/time              :   1900.0.0 / 00:00:00
.    Series_data_type                   :   Image   MRSERIES
.    Acquisition nr                     :   5
.    Reconstruction nr                  :   1
.    Scan Duration [sec]                :   903.72
.    Max. number of cardiac phases      :   1
.    Max. number of echoes              :   1
.    Max. number of slices/locations    :   75
.    Max. number of dynamics            :   1
.    Max. number of mixes               :   1
.    Patient Position                   :   HFS
.    Preparation direction              :   AP
.    Technique                          :   DwiSE
.    Scan resolution  (x, y)            :   112  112
.    Scan mode                          :   MS
.    Repetition time [msec]             :   23915.19
.    FOV (ap,fh,rl) [mm]                :   224.00  150.00  224.00
.    Water Fat shift [pixels]           :   18.25
.    Angulation midslice(ap,fh,rl)[degr]:   0.52     3.94     13.63
.    Off Centre midslice(ap,fh,rl) [mm] :   -30.14   46.49    -2.46
.    Flow compensation <0=no 1=yes> ?   :   0
.    Presaturation     <0=no 1=yes> ?   :   0
.    Phase encoding velocity [cm/sec]   :   0.00     0.00     0.00
.    MTC               <0=no 1=yes> ?   :   0
.    SPIR              <0=no 1=yes> ?   :   1
.    EPI factor        <0,1=no EPI>     :   59
.    Dynamic scan      <0=no 1=yes> ?   :   0
.    Diffusion         <0=no 1=yes> ?   :   1
.    Diffusion echo time [msec]         :   0.00
.    Max. number of diffusion values    :   2
.    Max. number of gradient orients    :   33
.    Number of label types   <0=no ASL> :   0
#
# === PIXEL VALUES =============================================================
#  PV = pixel value in REC file, FP = floating point value, DV = displayed value on console
#  RS = rescale slope,           RI = rescale intercept,    SS = scale slope
#  DV = PV * RS + RI             FP = PV /  SS
#
# === IMAGE INFORMATION DEFINITION =============================================
#  The rest of this file contains ONE line per image, this line contains the following information:
#  
#  slice number                             (integer)
#  echo number                              (integer)
#  dynamic scan number                      (integer)
#  cardiac phase number                     (integer)
#  image_type_mr                            (integer)
#  scanning sequence                        (integer)
#  index in REC file (in images)            (integer)
#  image pixel size (in bits)               (integer)
#  scan percentage                          (integer)
#  recon resolution (x,y)                   (2*integer)
#  rescale intercept                        (float)
#  rescale slope                            (float)
#  scale slope                              (float)
#  window center                            (integer)
#  window width                             (integer)
#  image angulation (ap,fh,rl in degrees )  (3*float)
#  image offcentre (ap,fh,rl in mm )        (3*float)
#  slice thickness                          (float)
#  slice gap                                (float)
#  image_display_orientation                (integer)
#  slice orientation ( TRA/SAG/COR )        (integer)
#  fmri_status_indication                   (integer)
#  image_type_ed_es  (end diast/end syst)   (integer)
#  pixel spacing (x,y) (in mm)              (2*float)
#  echo_time                                (float)
#  dyn_scan_begin_time                      (float)
#  trigger_time                             (float)
#  diffusion_b_factor                       (float)
#  number of averages                       (float)
#  image_flip_angle (in degrees)            (float)
#  cardiac frequency                        (integer)
#  min. RR. interval                        (integer)
#  max. RR. interval                        (integer)
#  turbo factor                             (integer)
#  inversion delay                          (float)
#  diffusion b value number    (imagekey!)  (integer)
#  gradient orientation number (imagekey!)  (integer)
#  contrast type                            (string)
#  diffusion anisotropy type                (string)
#  diffusion (ap, fh, rl)                   (3*float)
#  label type (ASL)            (imagekey!)  (integer)
#
# === IMAGE INFORMATION ==========================================================
#sl   ec  dyn ph  ty   idx    pix %   rec size       (re)scale                   window       angulation        offcentre             thick  gap     info     spacing      echo  dtime ttime diff   avg flip    freq  RR_int turbo delay b grad cont      anis              diffusion      L.ty

 1    1   1   1   0  1 0      16 100  112  112        0  3.78217 9.31955e-03   1278   2221  0.52  3.94 13.63 -12.704 -25.428  -3.125 2.00   0.00    0 1 0 2 2.0    2.0    55.0  0.0   0.0   0        1 90.0     0    0     0  59 0.00   1   33 0          0            0       0       0  0
 2    1   1   1   0  1 1      16 100  112  112        0  3.78217 9.31955e-03   1027   1785  0.52  3.94 13.63 -13.176 -23.484  -3.107 2.00   0.00    0 1 0 2 2.0    2.0    55.0  0.0   0.0   0        1 90.0     0    0     0  59 0.00   1   33 0          0            0       0       0  0
 3    1   1   1   0  1 2      16 100  112  112        0  3.78217 9.31955e-03   1017   1767  0.52  3.94 13.63 -13.647 -21.541  -3.089 2.00   0.00    0 1 0 2 2.0    2.0    55.0  0.0   0.0   0        1 90.0     0    0     0  59 0.00   1   33 0          0            0       0       0  0
 4    1   1   1   0  1 3      16 100  112  112        0  3.78217 9.31955e-03    895   1556  0.52  3.94 13.63 -14.118 -19.597  -3.071 2.00   0.00    0 1 0 2 2.0    2.0    55.0  0.0   0.0   0        1 90.0     0    0     0  59 0.00   1   33 0          0            0       0       0  0
 5    1   1   1   0  1 4      16 100  112  112        0  3.78217 9.31955e-03    849   1475  0.52  3.94 13.63 -14.589 -17.653  -3.052 2.00   0.00    0 1 0 2 2.0    2.0    55.0  0.0   0.0   0        1 90.0     0    0     0  59 0.00   1   33 0          0            0       0       0  0
 6    1   1   1   0  1 5      16 100  112  112        0  3.78217 9.31955e-03    804   1397  0.52  3.94 13.63 -15.060 -15.710  -3.034 2.00   0.00    0 1 0 2 2.0    2.0    55.0  0.0   0.0   0        1 90.0     0    0     0  59 0.00   1   33 0          0            0       0       0  0
 7    1   1   1   0  1 6      16 100  112  112        0  3.78217 9.31955e-03    826   1436  0.52  3.94 13.63 -15.532 -13.766  -3.016 2.00   0.00    0 1 0 2 2.0    2.0    55.0  0.0   0.0   0        1 90.0     0    0     0  59 0.00   1   33 0          0            0       0       0  0
 8    1   1   1   0  1 7      16 100  112  112        0  3.78217 9.31955e-03    782   1359  0.52  3.94 13.63 -16.003 -11.822  -2.998 2.00   0.00    0 1 0 2 2.0    2.0    55.0  0.0   0.0   0        1 90.0     0    0     0  59 0.00   1   33 0          0            0       0       0  0
 9    1   1   1   0  1 8      16 100  112  112        0  3.78217 9.31955e-03    832   1447  0.52  3.94 13.63 -16.474  -9.879  -2.980 2.00   0.00    0 1 0 2 2.0    2.0    55.0  0.0   0.0   0        1 90.0     0    0     0  59 0.00   1   33 0          0            0       0       0  0
 10   1   1   1   0  1 9      16 100  112  112        0  3.78217 9.31955e-03    778   1353  0.52  3.94 13.63 -16.945  -7.935  -2.962 2.00   0.00    0 1 0 2 2.0    2.0    55.0  0.0   0.0   0        1 90.0     0    0     0  59 0.00   1   33 0          0            0       0       0  0
 11   1   1   1   0  1 10     16 100  112  112        0  3.78217 9.31955e-03   1266   2201  0.52  3.94 13.63 -17.417  -5.992  -2.944 2.00   0.00    0 1 0 2 2.0    2.0    55.0  0.0   0.0   0        1 90.0     0    0     0  59 0.00   1   33 0          0            0       0       0  0
 12   1   1   1   0  1 11     16 100  112  112        0  3.78217 9.31955e-03   1054   1832  0.52  3.94 13.63 -17.888  -4.048  -2.926 2.00   0.00    0 1 0 2 2.0    2.0    55.0  0.0   0.0   0        1 90.0     0    0     0  59 0.00   1   33 0          0            0       0       0  0
 13   1   1   1   0  1 12     16 100  112  112        0  3.78217 9.31955e-03   1785   3102  0.52  3.94 13.63 -18.359  -2.104  -2.908 2.00   0.00    0 1 0 2 2.0    2.0    55.0  0.0   0.0   0        1 90.0     0    0     0  59 0.00   1   33 0          0            0       0       0  0
 14   1   1   1   0  1 13     16 100  112  112        0  3.78217 9.31955e-03   1565   2720  0.52  3.94 13.63 -18.830  -0.161  -2.890 2.00   0.00    0 1 0 2 2.0    2.0    55.0  0.0   0.0   0        1 90.0     0    0     0  59 0.00   1   33 0          0            0       0       0  0
 15   1   1   1   0  1 14     16 100  112  112        0  3.78217 9.31955e-03   2059   3580  0.52  3.94 13.63 -19.301   1.783  -2.872 2.00   0.00    0 1 0 2 2.0    2.0    55.0  0.0   0.0   0        1 90.0     0    0     0  59 0.00   1   33 0          0            0       0       0  0
 16   1   1   1   0  1 15     16 100  112  112        0  3.78217 9.31955e-03   1456   2531  0.52  3.94 13.63 -19.773   3.726  -2.854 2.00   0.00    0 1 0 2 2.0    2.0    55.0  0.0   0.0   0        1 90.0     0    0     0  59 0.00   1   33 0          0            0       0       0  0
 17   1   1   1   0  1 16     16 100  112  112        0  3.78217 9.31955e-03   1321   2295  0.52  3.94 13.63 -20.244   5.670  -2.836 2.00   0.00    0 1 0 2 2.0    2.0    55.0  0.0   0.0   0        1 90.0     0    0     0  59 0.00   1   33 0          0            0       0       0  0
 18   1   1   1   0  1 17     16 100  112  112        0  3.78217 9.31955e-03   1453   2525  0.52  3.94 13.63 -20.715   7.614  -2.818 2.00   0.00    0 1 0 2 2.0    2.0    55.0  0.0   0.0   0        1 90.0     0    0     0  59 0.00   1   33 0          0            0       0       0  0
 19   1   1   1   0  1 18     16 100  112  112        0  3.78217 9.31955e-03   1334   2318  0.52  3.94 13.63 -21.186   9.557  -2.800 2.00   0.00    0 1 0 2 2.0    2.0    55.0  0.0   0.0   0        1 90.0     0    0     0  59 0.00   1   33 0          0            0       0       0  0
 20   1   1   1   0  1 19     16 100  112  112        0  3.78217 9.31955e-03   1025   1782  0.52  3.94 13.63 -21.658  11.501  -2.782 2.00   0.00    0 1 0 2 2.0    2.0    55.0  0.0   0.0   0        1 90.0     0    0     0  59 0.00   1   33 0          0            0       0       0  0
 21   1   1   1   0  1 20     16 100  112  112        0  3.78217 9.31955e-03    982   1706  0.52  3.94 13.63 -22.129  13.444  -2.764 2.00   0.00    0 1 0 2 2.0    2.0    55.0  0.0   0.0   0        1 90.0     0    0     0  59 0.00   1   33 0          0            0       0       0  0
 22   1   1   1   0  1 21     16 100  112  112        0  3.78217 9.31955e-03    940   1635  0.52  3.94 13.63 -22.600  15.388  -2.746 2.00   0.00    0 1 0 2 2.0    2.0    55.0  0.0   0.0   0        1 90.0     0    0     0  59 0.00   1   33 0          0            0       0       0  0
 23   1   1   1   0  1 22     16 100  112  112        0  3.78217 9.31955e-03    972   1690  0.52  3.94 13.63 -23.071  17.332  -2.728 2.00   0.00    0 1 0 2 2.0    2.0    55.0  0.0   0.0   0        1 90.0     0    0     0  59 0.00   1   33 0          0            0       0       0  0
 24   1   1   1   0  1 23     16 100  112  112        0  3.78217 9.31955e-03    879   1527  0.52  3.94 13.63 -23.542  19.275  -2.710 2.00   0.00    0 1 0 2 2.0    2.0    55.0  0.0   0.0   0        1 90.0     0    0     0  59 0.00   1   33 0          0            0       0       0  0
 25   1   1   1   0  1 24     16 100  112  112        0  3.78217 9.31955e-03    895   1555  0.52  3.94 13.63 -24.014  21.219  -2.692 2.00   0.00    0 1 0 2 2.0    2.0    55.0  0.0   0.0   0        1 90.0     0    0     0  59 0.00   1   33 0          0            0       0       0  0
 26   1   1   1   0  1 25     16 100  112  112        0  3.78217 9.31955e-03    897   1559  0.52  3.94 13.63 -24.485  23.163  -2.674 2.00   0.00    0 1 0 2 2.0    2.0    55.0  0.0   0.0   0        1 90.0     0    0     0  59 0.00   1   33 0          0            0       0       0  0
 27   1   1   1   0  1 26     16 100  112  112        0  3.78217 9.31955e-03    890   1546  0.52  3.94 13.63 -24.956  25.106  -2.655 2.00   0.00    0 1 0 2 2.0    2.0    55.0  0.0   0.0   0        1 90.0     0    0     0  59 0.00   1   33 0          0            0       0       0  0
 28   1   1   1   0  1 27     16 100  112  112        0  3.78217 9.31955e-03    852   1480  0.52  3.94 13.63 -25.427  27.050  -2.637 2.00   0.00    0 1 0 2 2.0    2.0    55.0  0.0   0.0   0        1 90.0     0    0     0  59 0.00   1   33 0          0            0       0       0  0
 29   1   1   1   0  1 28     16 100  112  112        0  3.78217 9.31955e-03    827   1437  0.52  3.94 13.63 -25.899  28.993  -2.619 2.00   0.00    0 1 0 2 2.0    2.0    55.0  0.0   0.0   0        1 90.0     0    0     0  59 0.00   1   33 0          0            0       0       0  0
 30   1   1   1   0  1 29     16 100  112  112        0  3.78217 9.31955e-03    886   1541  0.52  3.94 13.63 -26.370  30.937  -2.601 2.00   0.00    0 1 0 2 2.0    2.0    55.0  0.0   0.0   0        1 90.0     0    0     0  59 0.00   1   33 0          0            0       0       0  0
 31   1   1   1   0  1 30     16 100  112  112        0  3.78217 9.31955e-03    866   1506  0.52  3.94 13.63 -26.841  32.881  -2.583 2.00   0.00    0 1 0 2 2.0    2.0    55.0  0.0   0.0   0        1 90.0     0    0     0  59 0.00   1   33 0          0            0       0       0  0
 32   1   1   1   0  1 31     16 100  112  112        0  3.78217 9.31955e-03    869   1510  0.52  3.94 13.63 -27.312  34.824  -2.565 2.00   0.00    0 1 0 2 2.0    2.0    55.0  0.0   0.0   0        1 90.0     0    0     0  59 0.00   1   33 0          0            0       0       0  0
 33   1   1   1   0  1 32     16 100  112  112        0  3.78217 9.31955e-03    822   1429  0.52  3.94 13.63 -27.783  36.768  -2.547 2.00   0.00    0 1 0 2 2.0    2.0    55.0  0.0   0.0   0        1 90.0     0    0     0  59 0.00   1   33 0          0            0       0       0  0
 34   1   1   1   0  1 33     16 100  112  112        0  3.78217 9.31955e-03    876   1523  0.52  3.94 13.63 -28.255  38.711  -2.529 2.00   0.00    0 1 0 2 2.0    2.0    55.0  0.0   0.0   0        1 90.0     0    0     0  59 0.00   1   33 0          0            0       0       0  0
 35   1   1   1   0  1 34     16 100  112  112        0  3.78217 9.31955e-03    959   1667  0.52  3.94 13.63 -28.726  40.655  -2.511 2.00   0.00    0 1 0 2 2.0    2.0    55.0  0.0   0.0   0        1 90.0     0    0     0  59 0.00   1   33 0          0            0       0       0  0
 36   1   1   1   0  1 35     16 100  112  112        0  3.78217 9.31955e-03    912   1586  0.52  3.94 13.63 -29.197  42.599  -2.493 2.00   0.00    0 1 0 2 2.0    2.0    55.0  0.0   0.0   0        1 90.0     0    0     0  59 0.00   1   33 0          0            0       0       0  0
 37   1   1   1   0  1 36     16 100  112  112        0  3.78217 9.31955e-03    952   1655  0.52  3.94 13.63 -29.668  44.542  -2.475 2.00   0.00    0 1 0 2 2.0    2.0    55.0  0.0   0.0   0        1 90.0     0    0     0  59 0.00   1   33 0          0            0       0       0  0
 38   1   1   1   0  1 37     16 100  112  112        0  3.78217 9.31955e-03   1070   1860  0.52  3.94 13.63 -30.140  46.486  -2.457 2.00   0.00    0 1 0 2 2.0    2.0    55.0  0.0   0.0   0        1 90.0     0    0     0  59 0.00   1   33 0          0            0       0       0  0
 39   1   1   1   0  1 38     16 100  112  112        0  3.78217 9.31955e-03    973   1691  0.52  3.94 13.63 -30.611  48.429  -2.439 2.00   0.00    0 1 0 2 2.0    2.0    55.0  0.0   0.0   0        1 90.0     0    0     0  59 0.00   1   33 0          0            0       0       0  0
 40   1   1   1   0  1 39     16 100  112  112        0  3.78217 9.31955e-03    904   1572  0.52  3.94 13.63 -31.082  50.373  -2.421 2.00   0.00    0 1 0 2 2.0    2.0    55.0  0.0   0.0   0        1 90.0     0    0     0  59 0.00   1   33 0          0            0       0       0  0
 41   1   1   1   0  1 40     16 100  112  112        0  3.78217 9.31955e-03    930   1616  0.52  3.94 13.63 -31.553  52.317  -2.403 2.00   0.00    0 1 0 2 2.0    2.0    55.0  0.0   0.0   0        1 90.0     0    0     0  59 0.00   1   33 0          0            0       0       0  0
 42   1   1   1   0  1 41     16 100  112  112        0  3.78217 9.31955e-03    946   1645  0.52  3.94 13.63 -32.024  54.260  -2.385 2.00   0.00    0 1 0 2 2.0    2.0    55.0  0.0   0.0   0        1 90.0     0    0     0  59 0.00   1   33 0          0            0       0       0  0
 43   1   1   1   0  1 42     16 100  112  112        0  3.78217 9.31955e-03    938   1630  0.52  3.94 13.63 -32.496  56.204  -2.367 2.00   0.00    0 1 0 2 2.0    2.0    55.0  0.0   0.0   0        1 90.0     0    0     0  59 0.00   1   33 0          0            0       0       0  0
 44   1   1   1   0  1 43     16 100  112  112        0  3.78217 9.31955e-03    855   1486  0.52  3.94 13.63 -32.967  58.148  -2.349 2.00   0.00    0 1 0 2 2.0    2.0    55.0  0.0   0.0   0        1 90.0     0    0     0  59 0.00   1   33 0          0            0       0       0  0
 45   1   1   1   0  1 44     16 100  112  112        0  3.78217 9.31955e-03    839   1459  0.52  3.94 13.63 -33.438  60.091  -2.331 2.00   0.00    0 1 0 2 2.0    2.0    55.0  0.0   0.0   0        1 90.0     0    0     0  59 0.00   1   33 0          0            0       0       0  0
 46   1   1   1   0  1 45     16 100  112  112        0  3.78217 9.31955e-03    860   1496  0.52  3.94 13.63 -33.909  62.035  -2.313 2.00   0.00    0 1 0 2 2.0    2.0    55.0  0.0   0.0   0        1 90.0     0    0     0  59 0.00   1   33 0          0            0       0       0  0
 47   1   1   1   0  1 46     16 100  112  112        0  3.78217 9.31955e-03    849   1476  0.52  3.94 13.63 -34.381  63.978  -2.295 2.00   0.00    0 1 0 2 2.0    2.0    55.0  0.0   0.0   0        1 90.0     0    0     0  59 0.00   1   33 0          0            0       0       0  0
 48   1   1   1   0  1 47     16 100  112  112        0  3.78217 9.31955e-03    866   1505  0.52  3.94 13.63 -34.852  65.922  -2.277 2.00   0.00    0 1 0 2 2.0    2.0    55.0  0.0   0.0   0        1 90.0     0    0     0  59 0.00   1   33 0          0            0       0       0  0
 49   1   1   1   0  1 48     16 100  112  112        0  3.78217 9.31955e-03    883   1534  0.52  3.94 13.63 -35.323  67.866  -2.258 2.00   0.00    0 1 0 2 2.0    2.0    55.0  0.0   0.0   0        1 90.0     0    0     0  59 0.00   1   33 0          0            0       0       0  0
 50   1   1   1   0  1 49     16 100  112  112        0  3.78217 9.31955e-03    885   1538  0.52  3.94 13.63 -35.794  69.809  -2.240 2.00   0.00    0 1 0 2 2.0    2.0    55.0  0.0   0.0   0        1 90.0     0    0     0  59 0.00   1   33 0          0            0       0       0  0
 51   1   1   1   0  1 50     16 100  112  112        0  3.78217 9.31955e-03    861   1497  0.52  3.94 13.63 -36.265  71.753  -2.222 2.00   0.00    0 1 0 2 2.0    2.0    55.0  0.0   0.0   0        1 90.0     0    0     0  59 0.00   1   33 0          0            0       0       0  0
 52   1   1   1   0  1 51     16 100  112  112        0  3.78217 9.31955e-03    837   1454  0.52  3.94 13.63 -36.737  73.696  -2.204 2.00   0.00    0 1 0 2 2.0    2.0    55.0  0.0   0.0   0        1 90.0     0    0     0  59 0.00   1   33 0          0            0       0       0  0
 53   1   1   1   0  1 52     16 100  112  112        0  3.78217 9.31955e-03    848   1474  0.52  3.94 13.63 -37.208  75.640  -2.186 2.00   0.00    0 1 0 2 2.0    2.0    55.0  0.0   0.0   0        1 90.0     0    0     0  59 0.00   1   33 0          0            0       0       0  0
 54   1   1   1   0  1 53     16 100  112  112        0  3.78217 9.31955e-03    865   1504  0.52  3.94 13.63 -37.679  77.584  -2.168 2.00   0.00    0 1 0 2 2.0    2.0    55.0  0.0   0.0   0        1 90.0     0    0     0  59 0.00   1   33 0          0            0       0       0  0
 55   1   1   1   0  1 54     16 100  112  112        0  3.78217 9.31955e-03    873   1517  0.52  3.94 13.63 -38.150  79.527  -2.150 2.00   0.00    0 1 0 2 2.0    2.0    55.0  0.0   0.0   0        1 90.0     0    0     0  59 0.00   1   33 0          0            0       0       0  0
 56   1   1   1   0  1 55     16 100  112  112        0  3.78217 9.31955e-03    850   1477  0.52  3.94 13.63 -38.622  81.471  -2.132 2.00   0.00    0 1 0 2 2.0    2.0    55.0  0.0   0.0   0        1 90.0     0    0     0  59 0.00   1   33 0          0            0       0       0  0
 57   1   1   1   0  1 56     16 100  112  112        0  3.78217 9.31955e-03    885   1539  0.52  3.94 13.63 -39.093  83.414  -2.114 2.00   0.00    0 1 0 2 2.0    2.0    55.0  0.0   0.0   0        1 90.0     0    0     0  59 0.00   1   33 0          0            0       0       0  0
 58   1   1   1   0  1 57     16 100  112  112        0  3.78217 9.31955e-03    853   1483  0.52  3.94 13.63 -39.564  85.358  -2.096 2.00   0.00    0 1 0 2 2.0    2.0    55.0  0.0   0.0   0        1 90.0     0    0     0  59 0.00   1   33 0          0            0       0       0  0
 59   1   1   1   0  1 58     16 100  112  112        0  3.78217 9.31955e-03    950   1651  0.52  3.94 13.63 -40.035  87.302  -2.078 2.00   0.00    0 1 0 2 2.0    2.0    55.0  0.0   0.0   0        1 90.0     0    0     0  59 0.00   1   33 0          0            0       0       0  0
 60   1   1   1   0  1 59     16 100  112  112        0  3.78217 9.31955e-03    850   1478  0.52  3.94 13.63 -40.506  89.245  -2.060 2.00   0.00    0 1 0 2 2.0    2.0    55.0  0.0   0.0   0        1 90.0     0    0     0  59 0.00   1   33 0          0            0       0       0  0
 61   1   1   1   0  1 60     16 100  112  112        0  3.78217 9.31955e-03    860   1495  0.52  3.94 13.63 -40.978  91.189  -2.042 2.00   0.00    0 1 0 2 2.0    2.0    55.0  0.0   0.0   0        1 90.0     0    0     0  59 0.00   1   33 0          0            0       0       0  0
 62   1   1   1   0  1 61     16 100  112  112        0  3.78217 9.31955e-03    903   1570  0.52  3.94 13.63 -41.449  93.133  -2.024 2.00   0.00    0 1 0 2 2.0    2.0    55.0  0.0   0.0   0        1 90.0     0    0     0  59 0.00   1   33 0          0            0       0       0  0
 63   1   1   1   0  1 62     16 100  112  112        0  3.78217 9.31955e-03    892   1550  0.52  3.94 13.63 -41.920  95.076  -2.006 2.00   0.00    0 1 0 2 2.0    2.0    55.0  0.0   0.0   0        1 90.0     0    0     0  59 0.00   1   33 0          0            0       0       0  0
 64   1   1   1   0  1 63     16 100  112  112        0  3.78217 9.31955e-03    863   1500  0.52  3.94 13.63 -42.391  97.020  -1.988 2.00   0.00    0 1 0 2 2.0    2.0    55.0  0.0   0.0   0        1 90.0     0    0     0  59 0.00   1   33 0          0            0       0       0  0
 65   1   1   1   0  1 64     16 100  112  112        0  3.78217 9.31955e-03    888   1544  0.52  3.94 13.63 -42.863  98.963  -1.970 2.00   0.00    0 1 0 2 2.0    2.0    55.0  0.0   0.0   0        1 90.0     0    0     0  59 0.00   1   33 0          0            0       0       0  0
 66   1   1   1   0  1 65     16 100  112  112        0  3.78217 9.31955e-03    824   1432  0.52  3.94 13.63 -43.334 100.907  -1.952 2.00   0.00    0 1 0 2 2.0    2.0    55.0  0.0   0.0   0        1 90.0     0    0     0  59 0.00   1   33 0          0            0       0       0  0
 67   1   1   1   0  1 66     16 100  112  112        0  3.78217 9.31955e-03    722   1255  0.52  3.94 13.63 -43.805 102.851  -1.934 2.00   0.00    0 1 0 2 2.0    2.0    55.0  0.0   0.0   0        1 90.0     0    0     0  59 0.00   1   33 0          0            0       0       0  0
 68   1   1   1   0  1 67     16 100  112  112        0  3.78217 9.31955e-03    457    794  0.52  3.94 13.63 -44.276 104.794  -1.916 2.00   0.00    0 1 0 2 2.0    2.0    55.0  0.0   0.0   0        1 90.0     0    0     0  59 0.00   1   33 0          0            0       0       0  0
 69   1   1   1   0  1 68     16 100  112  112        0  3.78217 9.31955e-03    235    408  0.52  3.94 13.63 -44.747 106.738  -1.898 2.00   0.00    0 1 0 2 2.0    2.0    55.0  0.0   0.0   0        1 90.0     0    0     0  59 0.00   1   33 0          0            0       0       0  0
 70   1   1   1   0  1 69     16 100  112  112        0  3.78217 9.31955e-03    198    345  0.52  3.94 13.63 -45.219 108.681  -1.880 2.00   0.00    0 1 0 2 2.0    2.0    55.0  0.0   0.0   0        1 90.0     0    0     0  59 0.00   1   33 0          0            0       0       0  0
 71   1   1   1   0  1 70     16 100  112  112        0  3.78217 9.31955e-03    191    333  0.52  3.94 13.63 -45.690 110.625  -1.861 2.00   0.00    0 1 0 2 2.0    2.0    55.0  0.0   0.0   0        1 90.0     0    0     0  59 0.00   1   33 0          0            0       0       0  0
 72   1   1   1   0  1 71     16 100  112  112        0  3.78217 9.31955e-03    176    306  0.52  3.94 13.63 -46.161 112.569  -1.843 2.00   0.00    0 1 0 2 2.0    2.0    55.0  0.0   0.0   0        1 90.0     0    0     0  59 0.00   1   33 0          0            0       0       0  0
 73   1   1   1   0  1 72     16 100  112  112        0  3.78217 9.31955e-03    172    299  0.52  3.94 13.63 -46.632 114.512  -1.825 2.00   0.00    0 1 0 2 2.0    2.0    55.0  0.0   0.0   0        1 90.0     0    0     0  59 0.00   1   33 0          0            0       0       0  0
 74   1   1   1   0  1 73     16 100  112  112        0  3.78217 9.31955e-03    120    208  0.52  3.94 13.63 -47.104 116.456  -1.807 2.00   0.00    0 1 0 2 2.0    2.0    55.0  0.0   0.0   0        1 90.0     0    0     0  59 0.00   1   33 0          0            0       0       0  0
 75   1   1   1   0  1 74     16 100  112  112        0  3.78217 9.31955e-03     13     22  0.52  3.94 13.63 -47.575 118.399  -1.789 2.00   0.00    0 1 0 2 2.0    2.0    55.0  0.0   0.0   0        1 90.0     0    0     0  59 0.00   1   33 0          0            0       0       0  0
 1    1   1   1   0  1 75     16 100  112  112        0  3.78217 9.31955e-03    191    333  0.52  3.94 13.63 -12.704 -25.428  -3.125 2.00   0.00    0 1 0 2 2.0    2.0    55.0  0.0   0.0   1000     1 90.0     0    0     0  59 0.00   2    1 0          0         -0.5  -0.707    -0.5  0
 2    1   1   1   0  1 76     16 100  112  112        0  3.78217 9.31955e-03    183    318  0.52  3.94 13.63 -13.176 -23.484  -3.107 2.00   0.00    0 1 0 2 2.0    2.0    55.0  0.0   0.0   1000     1 90.0     0    0     0  59 0.00   2    1 0          0         -0.5  -0.707    -0.5  0
 3    1   1   1   0  1 77     16 100  112  112        0  3.78217 9.31955e-03    218    379  0.52  3.94 13.63 -13.647 -21.541  -3.089 2.00   0.00    0 1 0 2 2.0    2.0    55.0  0.0   0.0   1000     1 90.0     0    0     0  59 0.00   2    1 0          0         -0.5  -0.707    -0.5  0
 4    1   1   1   0  1 78     16 100  112  112        0  3.78217 9.31955e-03    230    400  0.52  3.94 13.63 -14.118 -19.597  -3.071 2.00   0.00    0 1 0 2 2.0    2.0    55.0  0.0   0.0   1000     1 90.0     0    0     0  59 0.00   2    1 0          0         -0.5  -0.707    -0.5  0
 5    1   1   1   0  1 79     16 100  112  112        0  3.78217 9.31955e-03    242    421  0.52  3.94 13.63 -14.589 -17.653  -3.052 2.00   0.00    0 1 0 2 2.0    2.0    55.0  0.0   0.0   1000     1 90.0     0    0     0  59 0.00   2    1 0          0         -0.5  -0.707    -0.5  0
 6    1   1   1   0  1 80     16 100  112  112        0  3.78217 9.31955e-03    248    431  0.52  3.94 13.63 -15.060 -15.710  -3.034 2.00   0.00    0 1 0 2 2.0    2.0    55.0  0.0   0.0   1000     1 90.0     0    0     0  59 0.00   2    1 0          0         -0.5  -0.707    -0.5  0
 7    1   1   1   0  1 81     16 100  112  112        0  3.78217 9.31955e-03    228    397  0.52  3.94 13.63 -15.532 -13.766  -3.016 2.00   0.00    0 1 0 2 2.0    2.0    55.0  0.0   0.0   1000     1 90.0     0    0     0  59 0.00   2    1 0          0         -0.5  -0.707    -0.5  0
 8    1   1   1   0  1 82     16 100  112  112        0  3.78217 9.31955e-03    210    366  0.52  3.94 13.63 -16.003 -11.822  -2.998 2.00   0.00    0 1 0 2 2.0    2.0    55.0  0.0   0.0   1000     1 90.0     0    0     0  59 0.00   2    1 0          0         -0.5  -0.707    -0.5  0
 9    1   1   1   0  1 83     16 100  112  112        0  3.78217 9.31955e-03    196    341  0.52  3.94 13.63 -16.474  -9.879  -2.980 2.00   0.00    0 1 0 2 2.0    2.0    55.0  0.0   0.0   1000     1 90.0     0    0     0  59 0.00   2    1 0          0         -0.5  -0.707    -0.5  0
 10   1   1   1   0  1 84     16 100  112  112        0  3.78217 9.31955e-03    196    341  0.52  3.94 13.63 -16.945  -7.935  -2.962 2.00   0.00    0 1 0 2 2.0    2.0    55.0  0.0   0.0   1000     1 90.0     0    0     0  59 0.00   2    1 0          0         -0.5  -0.707    -0.5  0
 11   1   1   1   0  1 85     16 100  112  112        0  3.78217 9.31955e-03    209    363  0.52  3.94 13.63 -17.417  -5.992  -2.944 2.00   0.00    0 1 0 2 2.0    2.0    55.0  0.0   0.0   1000     1 90.0     0    0     0  59 0.00   2    1 0          0         -0.5  -0.707    -0.5  0
 12   1   1   1   0  1 86     16 100  112  112        0  3.78217 9.31955e-03    244    424  0.52  3.94 13.63 -17.888  -4.048  -2.926 2.00   0.00    0 1 0 2 2.0    2.0    55.0  0.0   0.0   1000     1 90.0     0    0     0  59 0.00   2    1 0          0         -0.5  -0.707    -0.5  0
