# === DATA DESCRIPTION FILE ======================================================
#
# CAUTION - Investigational device.
# Limited by Federal Law to investigational use.
#
# Dataset name: ph_26012017_1153144_4_1_dtihighisoeV4
# Exported by the GyroTools parfile exporter, Zuerich Switzerland (http://www.gyrotools.ch/)
# CLINICAL TRYOUT             Research image export tool     V4.2
#
# === GENERAL INFORMATION ========================================================
#
.    Patient name			:   phan toma
.    Examination name			:   
.    Protocol name			:   DTI_high_iso_E
.    Examination date/time		:   26.01.2017 / 11:53:14
.    Series Type			:   Image   MRSERIES
.    Acquisition nr			:   4
.    Reconstruction nr			:   1
.    Scan Duration [sec]		:   857.62
.    Max. number of cardiac phases	:   1
.    Max. number of echoes		:   1
.    Max. number of slices/locations	:   75
.    Max. number of dynamics		:   1
.    Max. number of mixes		:   1
.    Patient Position			:   N.A.
.    Preparation direction		:   AP
.    Technique				:   DwiSE
.    Scan resolution  (x, y)		:   112  110
.    Scan mode				:   MS
.    Repetition time [msec]		:   22597.06
.    FOV (ap,fh,rl) [mm]		:   224.00 150.00 224.00
.    Water Fat shift [pixels]		:   19.58
.    Angulation midslice(ap,fh,rl)[degr]:   1.25   -0.34  11.13 
.    Off Centre midslice(ap,fh,rl) [mm]	:   -7.42  8.35   -2.76 
.    Flow compensation <0=no 1=yes> ?	:   0
.    Presaturation     <0=no 1=yes> ?	:   0
.    Phase encoding velocity [cm/sec]	:   0.00   0.00  0.00
.    MTC               <0=no 1=yes> ?	:   0
.    SPIR              <0=no 1=yes> ?	:   0
.    EPI factor        <0,1=no EPI>	:   55
.    Dynamic scan      <0=no 1=yes> ?	:   0
.    Diffusion         <0=no 1=yes> ?	:   1
.    Diffusion echo time [msec]		:   0.00
.    Max. number of diffusion values	:   2
.    Max. number of gradient orients	:   33
.    Number of label types   <0=no ASL>	:   0
#
# === PIXEL VALUES =============================================================
#  PV = pixel value in REC file, FP = floating point value, DV = displayed value on console
#  RS = rescale slope,           RI = rescale intercept,    SS = scale slope
#  DV = PV * RS + RI             FP = PV /  SS
#
# === IMAGE INFORMATION DEFINITION =============================================
#  The rest of this file contains ONE line per image, this line contains the following information:
#  
#  slice number                             (integer)
#  echo number                              (integer)
#  dynamic scan number                      (integer)
#  cardiac phase number                     (integer)
#  image_type_mr                            (integer)
#  scanning sequence                        (integer)
#  index in REC file (in images)            (integer)
#  image pixel size (in bits)               (integer)
#  scan percentage                          (integer)
#  recon resolution (x,y)                   (2*integer)
#  rescale intercept                        (float)
#  rescale slope                            (float)
#  scale slope                              (float)
#  window center                            (integer)
#  window width                             (integer)
#  image angulation (ap,fh,rl in degrees )  (3*float)
#  image offcentre (ap,fh,rl in mm )        (3*float)
#  slice thickness                          (float)
#  slice gap                                (float)
#  image_display_orientation                (integer)
#  slice orientation ( TRA/SAG/COR )        (integer)
#  fmri_status_indication                   (integer)
#  image_type_ed_es  (end diast/end syst)   (integer)
#  pixel spacing (x,y) (in mm)              (2*float)
#  echo_time                                (float)
#  dyn_scan_begin_time                      (float)
#  trigger_time                             (float)
#  diffusion_b_factor                       (float)
#  number of averages                       (integer)
#  image_flip_angle (in degrees)            (float)
#  cardiac frequency                        (integer)
#  min. RR. interval                        (integer)
#  max. RR. interval                        (integer)
#  turbo factor                             (integer)
#  inversion delay                          (float)
#  diffusion b value number    (imagekey!)  (integer)
#  gradient orientation number (imagekey!)  (integer)
#  contrast type                            (string)
#  diffusion anisotropy type                (string)
#  diffusion (ap, fh, rl)                   (3*float)
#  label type (ASL)            (imagekey!)  (integer)
#
# === IMAGE INFORMATION ==========================================================
#sl ec dyn ph ty  idx pix % rec size (re)scale     window       angulation      offcentre         thick  gap   info   spacing   echo  dtime ttime    diff avg  flip  freq RR_int  turbo  delay b grad cont anis diffusion

1    1   1   1   0   1   0     16 100  112  112             0      4.95507    0.0115835    999   1737   1.25  -0.34  11.13   6.861 -64.242  -4.382  2.00  0.00 0 1 0 2 2.000 2.000   55.000      0.00   0.00   0.00 1  90.0     0     0     0  55 0.00   1  33      0      0  0.000  0.000  0.000   0
2    1   1   1   0   1   1     16 100  112  112             0      4.95507    0.0115835   1006   1748   1.25  -0.34  11.13   6.475 -62.280  -4.338  2.00  0.00 0 1 0 2 2.000 2.000   55.000      0.00   0.00   0.00 1  90.0     0     0     0  55 0.00   1  33      0      0  0.000  0.000  0.000   0
3    1   1   1   0   1   2     16 100  112  112             0      4.95507    0.0115835   1002   1742   1.25  -0.34  11.13   6.089 -60.318  -4.295  2.00  0.00 0 1 0 2 2.000 2.000   55.000      0.00   0.00   0.00 1  90.0     0     0     0  55 0.00   1  33      0      0  0.000  0.000  0.000   0
4    1   1   1   0   1   3     16 100  112  112             0      4.95507    0.0115835   1008   1752   1.25  -0.34  11.13   5.703 -58.357  -4.251  2.00  0.00 0 1 0 2 2.000 2.000   55.000      0.00   0.00   0.00 1  90.0     0     0     0  55 0.00   1  33      0      0  0.000  0.000  0.000   0
5    1   1   1   0   1   4     16 100  112  112             0      4.95507    0.0115835   1009   1753   1.25  -0.34  11.13   5.317 -56.395  -4.207  2.00  0.00 0 1 0 2 2.000 2.000   55.000      0.00   0.00   0.00 1  90.0     0     0     0  55 0.00   1  33      0      0  0.000  0.000  0.000   0
6    1   1   1   0   1   5     16 100  112  112             0      4.95507    0.0115835   1012   1759   1.25  -0.34  11.13   4.931 -54.433  -4.163  2.00  0.00 0 1 0 2 2.000 2.000   55.000      0.00   0.00   0.00 1  90.0     0     0     0  55 0.00   1  33      0      0  0.000  0.000  0.000   0
7    1   1   1   0   1   6     16 100  112  112             0      4.95507    0.0115835   1032   1794   1.25  -0.34  11.13   4.545 -52.471  -4.119  2.00  0.00 0 1 0 2 2.000 2.000   55.000      0.00   0.00   0.00 1  90.0     0     0     0  55 0.00   1  33      0      0  0.000  0.000  0.000   0
8    1   1   1   0   1   7     16 100  112  112             0      4.95507    0.0115835   1026   1783   1.25  -0.34  11.13   4.159 -50.509  -4.076  2.00  0.00 0 1 0 2 2.000 2.000   55.000      0.00   0.00   0.00 1  90.0     0     0     0  55 0.00   1  33      0      0  0.000  0.000  0.000   0
9    1   1   1   0   1   8     16 100  112  112             0      4.95507    0.0115835   1026   1783   1.25  -0.34  11.13   3.773 -48.547  -4.032  2.00  0.00 0 1 0 2 2.000 2.000   55.000      0.00   0.00   0.00 1  90.0     0     0     0  55 0.00   1  33      0      0  0.000  0.000  0.000   0
10   1   1   1   0   1   9     16 100  112  112             0      4.95507    0.0115835   1040   1808   1.25  -0.34  11.13   3.387 -46.585  -3.988  2.00  0.00 0 1 0 2 2.000 2.000   55.000      0.00   0.00   0.00 1  90.0     0     0     0  55 0.00   1  33      0      0  0.000  0.000  0.000   0
11   1   1   1   0   1   10    16 100  112  112             0      4.95507    0.0115835   1048   1823   1.25  -0.34  11.13   3.001 -44.623  -3.944  2.00  0.00 0 1 0 2 2.000 2.000   55.000      0.00   0.00   0.00 1  90.0     0     0     0  55 0.00   1  33      0      0  0.000  0.000  0.000   0
12   1   1   1   0   1   11    16 100  112  112             0      4.95507    0.0115835   1053   1830   1.25  -0.34  11.13   2.615 -42.661  -3.901  2.00  0.00 0 1 0 2 2.000 2.000   55.000      0.00   0.00   0.00 1  90.0     0     0     0  55 0.00   1  33      0      0  0.000  0.000  0.000   0
13   1   1   1   0   1   12    16 100  112  112             0      4.95507    0.0115835   1059   1841   1.25  -0.34  11.13   2.230 -40.699  -3.857  2.00  0.00 0 1 0 2 2.000 2.000   55.000      0.00   0.00   0.00 1  90.0     0     0     0  55 0.00   1  33      0      0  0.000  0.000  0.000   0
14   1   1   1   0   1   13    16 100  112  112             0      4.95507    0.0115835   1065   1851   1.25  -0.34  11.13   1.844 -38.737  -3.813  2.00  0.00 0 1 0 2 2.000 2.000   55.000      0.00   0.00   0.00 1  90.0     0     0     0  55 0.00   1  33      0      0  0.000  0.000  0.000   0
15   1   1   1   0   1   14    16 100  112  112             0      4.95507    0.0115835   1075   1869   1.25  -0.34  11.13   1.458 -36.775  -3.769  2.00  0.00 0 1 0 2 2.000 2.000   55.000      0.00   0.00   0.00 1  90.0     0     0     0  55 0.00   1  33      0      0  0.000  0.000  0.000   0
16   1   1   1   0   1   15    16 100  112  112             0      4.95507    0.0115835   1078   1874   1.25  -0.34  11.13   1.072 -34.814  -3.725  2.00  0.00 0 1 0 2 2.000 2.000   55.000      0.00   0.00   0.00 1  90.0     0     0     0  55 0.00   1  33      0      0  0.000  0.000  0.000   0
17   1   1   1   0   1   16    16 100  112  112             0      4.95507    0.0115835   1104   1919   1.25  -0.34  11.13   0.686 -32.852  -3.682  2.00  0.00 0 1 0 2 2.000 2.000   55.000      0.00   0.00   0.00 1  90.0     0     0     0  55 0.00   1  33      0      0  0.000  0.000  0.000   0
18   1   1   1   0   1   17    16 100  112  112             0      4.95507    0.0115835   1110   1930   1.25  -0.34  11.13   0.300 -30.890  -3.638  2.00  0.00 0 1 0 2 2.000 2.000   55.000      0.00   0.00   0.00 1  90.0     0     0     0  55 0.00   1  33      0      0  0.000  0.000  0.000   0
19   1   1   1   0   1   18    16 100  112  112             0      4.95507    0.0115835   1115   1938   1.25  -0.34  11.13  -0.086 -28.928  -3.594  2.00  0.00 0 1 0 2 2.000 2.000   55.000      0.00   0.00   0.00 1  90.0     0     0     0  55 0.00   1  33      0      0  0.000  0.000  0.000   0
20   1   1   1   0   1   19    16 100  112  112             0      4.95507    0.0115835   1114   1936   1.25  -0.34  11.13  -0.472 -26.966  -3.550  2.00  0.00 0 1 0 2 2.000 2.000   55.000      0.00   0.00   0.00 1  90.0     0     0     0  55 0.00   1  33      0      0  0.000  0.000  0.000   0
21   1   1   1   0   1   20    16 100  112  112             0      4.95507    0.0115835   1093   1900   1.25  -0.34  11.13  -0.858 -25.004  -3.507  2.00  0.00 0 1 0 2 2.000 2.000   55.000      0.00   0.00   0.00 1  90.0     0     0     0  55 0.00   1  33      0      0  0.000  0.000  0.000   0
22   1   1   1   0   1   21    16 100  112  112             0      4.95507    0.0115835   1070   1860   1.25  -0.34  11.13  -1.244 -23.042  -3.463  2.00  0.00 0 1 0 2 2.000 2.000   55.000      0.00   0.00   0.00 1  90.0     0     0     0  55 0.00   1  33      0      0  0.000  0.000  0.000   0
23   1   1   1   0   1   22    16 100  112  112             0      4.95507    0.0115835   1052   1828   1.25  -0.34  11.13  -1.630 -21.080  -3.419  2.00  0.00 0 1 0 2 2.000 2.000   55.000      0.00   0.00   0.00 1  90.0     0     0     0  55 0.00   1  33      0      0  0.000  0.000  0.000   0
24   1   1   1   0   1   23    16 100  112  112             0      4.95507    0.0115835   1051   1827   1.25  -0.34  11.13  -2.016 -19.118  -3.375  2.00  0.00 0 1 0 2 2.000 2.000   55.000      0.00   0.00   0.00 1  90.0     0     0     0  55 0.00   1  33      0      0  0.000  0.000  0.000   0
25   1   1   1   0   1   24    16 100  112  112             0      4.95507    0.0115835   1057   1838   1.25  -0.34  11.13  -2.402 -17.156  -3.331  2.00  0.00 0 1 0 2 2.000 2.000   55.000      0.00   0.00   0.00 1  90.0     0     0     0  55 0.00   1  33      0      0  0.000  0.000  0.000   0
26   1   1   1   0   1   25    16 100  112  112             0      4.95507    0.0115835   1045   1816   1.25  -0.34  11.13  -2.788 -15.194  -3.288  2.00  0.00 0 1 0 2 2.000 2.000   55.000      0.00   0.00   0.00 1  90.0     0     0     0  55 0.00   1  33      0      0  0.000  0.000  0.000   0
27   1   1   1   0   1   26    16 100  112  112             0      4.95507    0.0115835   1052   1828   1.25  -0.34  11.13  -3.174 -13.232  -3.244  2.00  0.00 0 1 0 2 2.000 2.000   55.000      0.00   0.00   0.00 1  90.0     0     0     0  55 0.00   1  33      0      0  0.000  0.000  0.000   0
28   1   1   1   0   1   27    16 100  112  112             0      4.95507    0.0115835   1054   1832   1.25  -0.34  11.13  -3.560 -11.270  -3.200  2.00  0.00 0 1 0 2 2.000 2.000   55.000      0.00   0.00   0.00 1  90.0     0     0     0  55 0.00   1  33      0      0  0.000  0.000  0.000   0
29   1   1   1   0   1   28    16 100  112  112             0      4.95507    0.0115835   1049   1823   1.25  -0.34  11.13  -3.946  -9.309  -3.156  2.00  0.00 0 1 0 2 2.000 2.000   55.000      0.00   0.00   0.00 1  90.0     0     0     0  55 0.00   1  33      0      0  0.000  0.000  0.000   0
30   1   1   1   0   1   29    16 100  112  112             0      4.95507    0.0115835   1050   1825   1.25  -0.34  11.13  -4.331  -7.347  -3.113  2.00  0.00 0 1 0 2 2.000 2.000   55.000      0.00   0.00   0.00 1  90.0     0     0     0  55 0.00   1  33      0      0  0.000  0.000  0.000   0
31   1   1   1   0   1   30    16 100  112  112             0      4.95507    0.0115835   1051   1827   1.25  -0.34  11.13  -4.717  -5.385  -3.069  2.00  0.00 0 1 0 2 2.000 2.000   55.000      0.00   0.00   0.00 1  90.0     0     0     0  55 0.00   1  33      0      0  0.000  0.000  0.000   0
32   1   1   1   0   1   31    16 100  112  112             0      4.95507    0.0115835   1051   1827   1.25  -0.34  11.13  -5.103  -3.423  -3.025  2.00  0.00 0 1 0 2 2.000 2.000   55.000      0.00   0.00   0.00 1  90.0     0     0     0  55 0.00   1  33      0      0  0.000  0.000  0.000   0
33   1   1   1   0   1   32    16 100  112  112             0      4.95507    0.0115835   1052   1828   1.25  -0.34  11.13  -5.489  -1.461  -2.981  2.00  0.00 0 1 0 2 2.000 2.000   55.000      0.00   0.00   0.00 1  90.0     0     0     0  55 0.00   1  33      0      0  0.000  0.000  0.000   0
34   1   1   1   0   1   33    16 100  112  112             0      4.95507    0.0115835   1055   1835   1.25  -0.34  11.13  -5.875   0.501  -2.938  2.00  0.00 0 1 0 2 2.000 2.000   55.000      0.00   0.00   0.00 1  90.0     0     0     0  55 0.00   1  33      0      0  0.000  0.000  0.000   0
35   1   1   1   0   1   34    16 100  112  112             0      4.95507    0.0115835   1049   1823   1.25  -0.34  11.13  -6.261   2.463  -2.894  2.00  0.00 0 1 0 2 2.000 2.000   55.000      0.00   0.00   0.00 1  90.0     0     0     0  55 0.00   1  33      0      0  0.000  0.000  0.000   0
36   1   1   1   0   1   35    16 100  112  112             0      4.95507    0.0115835   1057   1837   1.25  -0.34  11.13  -6.647   4.425  -2.850  2.00  0.00 0 1 0 2 2.000 2.000   55.000      0.00   0.00   0.00 1  90.0     0     0     0  55 0.00   1  33      0      0  0.000  0.000  0.000   0
37   1   1   1   0   1   36    16 100  112  112             0      4.95507    0.0115835   1054   1833   1.25  -0.34  11.13  -7.033   6.387  -2.806  2.00  0.00 0 1 0 2 2.000 2.000   55.000      0.00   0.00   0.00 1  90.0     0     0     0  55 0.00   1  33      0      0  0.000  0.000  0.000   0
38   1   1   1   0   1   37    16 100  112  112             0      4.95507    0.0115835   1058   1839   1.25  -0.34  11.13  -7.419   8.349  -2.762  2.00  0.00 0 1 0 2 2.000 2.000   55.000      0.00   0.00   0.00 1  90.0     0     0     0  55 0.00   1  33      0      0  0.000  0.000  0.000   0
39   1   1   1   0   1   38    16 100  112  112             0      4.95507    0.0115835   1066   1853   1.25  -0.34  11.13  -7.805  10.311  -2.719  2.00  0.00 0 1 0 2 2.000 2.000   55.000      0.00   0.00   0.00 1  90.0     0     0     0  55 0.00   1  33      0      0  0.000  0.000  0.000   0
40   1   1   1   0   1   39    16 100  112  112             0      4.95507    0.0115835   1070   1860   1.25  -0.34  11.13  -8.191  12.273  -2.675  2.00  0.00 0 1 0 2 2.000 2.000   55.000      0.00   0.00   0.00 1  90.0     0     0     0  55 0.00   1  33      0      0  0.000  0.000  0.000   0
41   1   1   1   0   1   40    16 100  112  112             0      4.95507    0.0115835   1077   1873   1.25  -0.34  11.13  -8.577  14.235  -2.631  2.00  0.00 0 1 0 2 2.000 2.000   55.000      0.00   0.00   0.00 1  90.0     0     0     0  55 0.00   1  33      0      0  0.000  0.000  0.000   0
42   1   1   1   0   1   41    16 100  112  112             0      4.95507    0.0115835   1094   1902   1.25  -0.34  11.13  -8.963  16.196  -2.587  2.00  0.00 0 1 0 2 2.000 2.000   55.000      0.00   0.00   0.00 1  90.0     0     0     0  55 0.00   1  33      0      0  0.000  0.000  0.000   0
43   1   1   1   0   1   42    16 100  112  112             0      4.95507    0.0115835   1072   1863   1.25  -0.34  11.13  -9.349  18.158  -2.544  2.00  0.00 0 1 0 2 2.000 2.000   55.000      0.00   0.00   0.00 1  90.0     0     0     0  55 0.00   1  33      0      0  0.000  0.000  0.000   0
44   1   1   1   0   1   43    16 100  112  112             0      4.95507    0.0115835   1072   1863   1.25  -0.34  11.13  -9.735  20.120  -2.500  2.00  0.00 0 1 0 2 2.000 2.000   55.000      0.00   0.00   0.00 1  90.0     0     0     0  55 0.00   1  33      0      0  0.000  0.000  0.000   0
45   1   1   1   0   1   44    16 100  112  112             0      4.95507    0.0115835   1070   1859   1.25  -0.34  11.13 -10.121  22.082  -2.456  2.00  0.00 0 1 0 2 2.000 2.000   55.000      0.00   0.00   0.00 1  90.0     0     0     0  55 0.00   1  33      0      0  0.000  0.000  0.000   0
46   1   1   1   0   1   45    16 100  112  112             0      4.95507    0.0115835   1073   1864   1.25  -0.34  11.13 -10.507  24.044  -2.412  2.00  0.00 0 1 0 2 2.000 2.000   55.000      0.00   0.00   0.00 1  90.0     0     0     0  55 0.00   1  33      0      0  0.000  0.000  0.000   0
47   1   1   1   0   1   46    16 100  112  112             0      4.95507    0.0115835   1070   1860   1.25  -0.34  11.13 -10.892  26.006  -2.368  2.00  0.00 0 1 0 2 2.000 2.000   55.000      0.00   0.00   0.00 1  90.0     0     0     0  55 0.00   1  33      0      0  0.000  0.000  0.000   0
48   1   1   1   0   1   47    16 100  112  112             0      4.95507    0.0115835   1078   1873   1.25  -0.34  11.13 -11.278  27.968  -2.325  2.00  0.00 0 1 0 2 2.000 2.000   55.000      0.00   0.00   0.00 1  90.0     0     0     0  55 0.00   1  33      0      0  0.000  0.000  0.000   0
49   1   1   1   0   1   48    16 100  112  112             0      4.95507    0.0115835   1073   1865   1.25  -0.34  11.13 -11.664  29.930  -2.281  2.00  0.00 0 1 0 2 2.000 2.000   55.000      0.00   0.00   0.00 1  90.0     0     0     0  55 0.00   1  33      0      0  0.000  0.000  0.000   0
50   1   1   1   0   1   49    16 100  112  112             0      4.95507    0.0115835   1065   1852   1.25  -0.34  11.13 -12.050  31.892  -2.237  2.00  0.00 0 1 0 2 2.000 2.000   55.000      0.00   0.00   0.00 1  90.0     0     0     0  55 0.00   1  33      0      0  0.000  0.000  0.000   0
51   1   1   1   0   1   50    16 100  112  112             0      4.95507    0.0115835   1064   1849   1.25  -0.34  11.13 -12.436  33.854  -2.193  2.00  0.00 0 1 0 2 2.000 2.000   55.000      0.00   0.00   0.00 1  90.0     0     0     0  55 0.00   1  33      0      0  0.000  0.000  0.000   0
52   1   1   1   0   1   51    16 100  112  112             0      4.95507    0.0115835   1089   1893   1.25  -0.34  11.13 -12.822  35.816  -2.150  2.00  0.00 0 1 0 2 2.000 2.000   55.000      0.00   0.00   0.00 1  90.0     0     0     0  55 0.00   1  33      0      0  0.000  0.000  0.000   0
53   1   1   1   0   1   52    16 100  112  112             0      4.95507    0.0115835   1078   1875   1.25  -0.34  11.13 -13.208  37.778  -2.106  2.00  0.00 0 1 0 2 2.000 2.000   55.000      0.00   0.00   0.00 1  90.0     0     0     0  55 0.00   1  33      0      0  0.000  0.000  0.000   0
54   1   1   1   0   1   53    16 100  112  112             0      4.95507    0.0115835   1072   1863   1.25  -0.34  11.13 -13.594  39.739  -2.062  2.00  0.00 0 1 0 2 2.000 2.000   55.000      0.00   0.00   0.00 1  90.0     0     0     0  55 0.00   1  33      0      0  0.000  0.000  0.000   0
55   1   1   1   0   1   54    16 100  112  112             0      4.95507    0.0115835   1072   1863   1.25  -0.34  11.13 -13.980  41.701  -2.018  2.00  0.00 0 1 0 2 2.000 2.000   55.000      0.00   0.00   0.00 1  90.0     0     0     0  55 0.00   1  33      0      0  0.000  0.000  0.000   0
56   1   1   1   0   1   55    16 100  112  112             0      4.95507    0.0115835   1056   1836   1.25  -0.34  11.13 -14.366  43.663  -1.974  2.00  0.00 0 1 0 2 2.000 2.000   55.000      0.00   0.00   0.00 1  90.0     0     0     0  55 0.00   1  33      0      0  0.000  0.000  0.000   0
57   1   1   1   0   1   56    16 100  112  112             0      4.95507    0.0115835   1056   1836   1.25  -0.34  11.13 -14.752  45.625  -1.931  2.00  0.00 0 1 0 2 2.000 2.000   55.000      0.00   0.00   0.00 1  90.0     0     0     0  55 0.00   1  33      0      0  0.000  0.000  0.000   0
58   1   1   1   0   1   57    16 100  112  112             0      4.95507    0.0115835   1052   1828   1.25  -0.34  11.13 -15.138  47.587  -1.887  2.00  0.00 0 1 0 2 2.000 2.000   55.000      0.00   0.00   0.00 1  90.0     0     0     0  55 0.00   1  33      0      0  0.000  0.000  0.000   0
59   1   1   1   0   1   58    16 100  112  112             0      4.95507    0.0115835   1057   1838   1.25  -0.34  11.13 -15.524  49.549  -1.843  2.00  0.00 0 1 0 2 2.000 2.000   55.000      0.00   0.00   0.00 1  90.0     0     0     0  55 0.00   1  33      0      0  0.000  0.000  0.000   0
60   1   1   1   0   1   59    16 100  112  112             0      4.95507    0.0115835   1033   1795   1.25  -0.34  11.13 -15.910  51.511  -1.799  2.00  0.00 0 1 0 2 2.000 2.000   55.000      0.00   0.00   0.00 1  90.0     0     0     0  55 0.00   1  33      0      0  0.000  0.000  0.000   0
61   1   1   1   0   1   60    16 100  112  112             0      4.95507    0.0115835   1017   1769   1.25  -0.34  11.13 -16.296  53.473  -1.756  2.00  0.00 0 1 0 2 2.000 2.000   55.000      0.00   0.00   0.00 1  90.0     0     0     0  55 0.00   1  33      0      0  0.000  0.000  0.000   0
62   1   1   1   0   1   61    16 100  112  112             0      4.95507    0.0115835    991   1722   1.25  -0.34  11.13 -16.682  55.435  -1.712  2.00  0.00 0 1 0 2 2.000 2.000   55.000      0.00   0.00   0.00 1  90.0     0     0     0  55 0.00   1  33      0      0  0.000  0.000  0.000   0
63   1   1   1   0   1   62    16 100  112  112             0      4.95507    0.0115835    987   1716   1.25  -0.34  11.13 -17.068  57.397  -1.668  2.00  0.00 0 1 0 2 2.000 2.000   55.000      0.00   0.00   0.00 1  90.0     0     0     0  55 0.00   1  33      0      0  0.000  0.000  0.000   0
64   1   1   1   0   1   63    16 100  112  112             0      4.95507    0.0115835    966   1679   1.25  -0.34  11.13 -17.453  59.359  -1.624  2.00  0.00 0 1 0 2 2.000 2.000   55.000      0.00   0.00   0.00 1  90.0     0     0     0  55 0.00   1  33      0      0  0.000  0.000  0.000   0
65   1   1   1   0   1   64    16 100  112  112             0      4.95507    0.0115835    946   1645   1.25  -0.34  11.13 -17.839  61.321  -1.580  2.00  0.00 0 1 0 2 2.000 2.000   55.000      0.00   0.00   0.00 1  90.0     0     0     0  55 0.00   1  33      0      0  0.000  0.000  0.000   0
66   1   1   1   0   1   65    16 100  112  112             0      4.95507    0.0115835    941   1636   1.25  -0.34  11.13 -18.225  63.283  -1.537  2.00  0.00 0 1 0 2 2.000 2.000   55.000      0.00   0.00   0.00 1  90.0     0     0     0  55 0.00   1  33      0      0  0.000  0.000  0.000   0
67   1   1   1   0   1   66    16 100  112  112             0      4.95507    0.0115835    930   1617   1.25  -0.34  11.13 -18.611  65.244  -1.493  2.00  0.00 0 1 0 2 2.000 2.000   55.000      0.00   0.00   0.00 1  90.0     0     0     0  55 0.00   1  33      0      0  0.000  0.000  0.000   0
68   1   1   1   0   1   67    16 100  112  112             0      4.95507    0.0115835    929   1615   1.25  -0.34  11.13 -18.997  67.206  -1.449  2.00  0.00 0 1 0 2 2.000 2.000   55.000      0.00   0.00   0.00 1  90.0     0     0     0  55 0.00   1  33      0      0  0.000  0.000  0.000   0
69   1   1   1   0   1   68    16 100  112  112             0      4.95507    0.0115835    931   1618   1.25  -0.34  11.13 -19.383  69.168  -1.405  2.00  0.00 0 1 0 2 2.000 2.000   55.000      0.00   0.00   0.00 1  90.0     0     0     0  55 0.00   1  33      0      0  0.000  0.000  0.000   0
70   1   1   1   0   1   69    16 100  112  112             0      4.95507    0.0115835    935   1626   1.25  -0.34  11.13 -19.769  71.130  -1.362  2.00  0.00 0 1 0 2 2.000 2.000   55.000      0.00   0.00   0.00 1  90.0     0     0     0  55 0.00   1  33      0      0  0.000  0.000  0.000   0
71   1   1   1   0   1   70    16 100  112  112             0      4.95507    0.0115835    938   1631   1.25  -0.34  11.13 -20.155  73.092  -1.318  2.00  0.00 0 1 0 2 2.000 2.000   55.000      0.00   0.00   0.00 1  90.0     0     0     0  55 0.00   1  33      0      0  0.000  0.000  0.000   0
72   1   1   1   0   1   71    16 100  112  112             0      4.95507    0.0115835    946   1645   1.25  -0.34  11.13 -20.541  75.054  -1.274  2.00  0.00 0 1 0 2 2.000 2.000   55.000      0.00   0.00   0.00 1  90.0     0     0     0  55 0.00   1  33      0      0  0.000  0.000  0.000   0
73   1   1   1   0   1   72    16 100  112  112             0      4.95507    0.0115835    951   1654   1.25  -0.34  11.13 -20.927  77.016  -1.230  2.00  0.00 0 1 0 2 2.000 2.000   55.000      0.00   0.00   0.00 1  90.0     0     0     0  55 0.00   1  33      0      0  0.000  0.000  0.000   0
74   1   1   1   0   1   73    16 100  112  112             0      4.95507    0.0115835    955   1660   1.25  -0.34  11.13 -21.313  78.978  -1.187  2.00  0.00 0 1 0 2 2.000 2.000   55.000      0.00   0.00   0.00 1  90.0     0     0     0  55 0.00   1  33      0      0  0.000  0.000  0.000   0
75   1   1   1   0   1   74    16 100  112  112             0      4.95507    0.0115835    969   1685   1.25  -0.34  11.13 -21.699  80.940  -1.143  2.00  0.00 0 1 0 2 2.000 2.000   55.000      0.00   0.00   0.00 1  90.0     0     0     0  55 0.00   1  33      0      0  0.000  0.000  0.000   0
1    1   1   1   0   1   75    16 100  112  112             0      4.95507    0.0115835    210    365   1.25  -0.34  11.13   6.861 -64.242  -4.382  2.00  0.00 0 1 0 2 2.000 2.000   55.000      0.00   0.00 1000.00 1  90.0     0     0     0  55 0.00   2   1      0      0 -0.500 -0.707 -0.500   0
2    1   1   1   0   1   76    16 100  112  112             0      4.95507    0.0115835    210    365   1.25  -0.34  11.13   6.475 -62.280  -4.338  2.00  0.00 0 1 0 2 2.000 2.000   55.000      0.00   0.00 1000.00 1  90.0     0     0     0  55 0.00   2   1      0      0 -0.500 -0.707 -0.500   0
3    1   1   1   0   1   77    16 100  112  112             0      4.95507    0.0115835    206    358   1.25  -0.34  11.13   6.089 -60.318  -4.295  2.00  0.00 0 1 0 2 2.000 2.000   55.000      0.00   0.00 1000.00 1  90.0     0     0     0  55 0.00   2   1      0      0 -0.500 -0.707 -0.500   0
4    1   1   1   0   1   78    16 100  112  112             0      4.95507    0.0115835    203    352   1.25  -0.34  11.13   5.703 -58.357  -4.251  2.00  0.00 0 1 0 2 2.000 2.000   55.000      0.00   0.00 1000.00 1  90.0     0     0     0  55 0.00   2   1      0      0 -0.500 -0.707 -0.500   0
5    1   1   1   0   1   79    16 100  112  112             0      4.95507    0.0115835    202    352   1.25  -0.34  11.13   5.317 -56.395  -4.207  2.00  0.00 0 1 0 2 2.000 2.000   55.000      0.00   0.00 1000.00 1  90.0     0     0     0  55 0.00   2   1      0      0 -0.500 -0.707 -0.500   0
6    1   1   1   0   1   80    16 100  112  112             0      4.95507    0.0115835    206    358   1.25  -0.34  11.13   4.931 -54.433  -4.163  2.00  0.00 0 1 0 2 2.000 2.000   55.000      0.00   0.00 1000.00 1  90.0     0     0     0  55 0.00   2   1      0      0 -0.500 -0.707 -0.500   0
7    1   1   1   0   1   81    16 100  112  112             0      4.95507    0.0115835    206    358   1.25  -0.34  11.13   4.545 -52.471  -4.119  2.00  0.00 0 1 0 2 2.000 2.000   55.000      0.00   0.00 1000.00 1  90.0     0     0     0  55 0.00   2   1      0      0 -0.500 -0.707 -0.500   0
8    1   1   1   0   1   82    16 100  112  112             0      4.95507    0.0115835    208    362   1.25  -0.34  11.13   4.159 -50.509  -4.076  2.00  0.00 0 1 0 2 2.000 2.000   55.000      0.00   0.00 1000.00 1  90.0     0     0     0  55 0.00   2   1      0      0 -0.500 -0.707 -0.500   0
9    1   1   1   0   1   83    16 100  112  112             0      4.95507    0.0115835    203    353   1.25  -0.34  11.13   3.773 -48.547  -4.032  2.00  0.00 0 1 0 2 2.000 2.000   55.000      0.00   0.00 1000.00 1  90.0     0     0     0  55 0.00   2   1      0      0 -0.500 -0.707 -0.500   0
10   1   1   1   0   1   84    16 100  112  112             0      4.95507    0.0115835    204    354   1.25  -0.34  11.13   3.387 -46.585  -3.988  2.00  0.00 0 1 0 2 2.000 2.000   55.000      0.00   0.00 1000.00 1  90.0     0     0     0  55 0.00   2   1      0      0 -0.500 -0.707 -0.500   0
