# === DATA DESCRIPTION FILE ======================================================
#
# CAUTION - Investigational device.
# Limited by Federal Law to investigational use.
#
# Dataset name: H:\NIBABEL\NIBABEL_TEST_DATA_WIP_T1_SENSE_3_1
#
# CLINICAL TRYOUT             Research image export tool     V4.2
#
# === GENERAL INFORMATION ========================================================
#
.    Patient name                       :   NIBABEL_TEST_DATA
.    Examination name                   :   NIBABEL_TEST_DATA_LOW_RES
.    Protocol name                      :   WIP T1 SENSE
.    Examination date/time              :   2014.11.18 / 19:26:45
.    Series Type                        :   Image   MRSERIES
.    Acquisition nr                     :   3
.    Reconstruction nr                  :   1
.    Scan Duration [sec]                :   61.8
.    Max. number of cardiac phases      :   1
.    Max. number of echoes              :   3
.    Max. number of slices/locations    :   84
.    Max. number of dynamics            :   1
.    Max. number of mixes               :   1
.    Patient position                   :   Head First Supine
.    Preparation direction              :   Anterior-Posterior
.    Technique                          :   T1TFE
.    Scan resolution  (x, y)            :   120  120
.    Scan mode                          :   3D
.    Repetition time [ms]               :   15.406  
.    FOV (ap,fh,rl) [mm]                :   240.000  240.000  168.000
.    Water Fat shift [pixels]           :   1.135
.    Angulation midslice(ap,fh,rl)[degr]:   0.000  0.000  0.000
.    Off Centre midslice(ap,fh,rl) [mm] :   -12.124  29.682  1.254
.    Flow compensation <0=no 1=yes> ?   :   0
.    Presaturation     <0=no 1=yes> ?   :   1
.    Phase encoding velocity [cm/sec]   :   0.000000  0.000000  0.000000
.    MTC               <0=no 1=yes> ?   :   0
.    SPIR              <0=no 1=yes> ?   :   0
.    EPI factor        <0,1=no EPI>     :   1
.    Dynamic scan      <0=no 1=yes> ?   :   0
.    Diffusion         <0=no 1=yes> ?   :   0
.    Diffusion echo time [ms]           :   0.0000
.    Max. number of diffusion values    :   1
.    Max. number of gradient orients    :   1
.    Number of label types   <0=no ASL> :   0
#
# === PIXEL VALUES =============================================================
#  PV = pixel value in REC file, FP = floating point value, DV = displayed value on console
#  RS = rescale slope,           RI = rescale intercept,    SS = scale slope
#  DV = PV * RS + RI             FP = DV / (RS * SS)
#
# === IMAGE INFORMATION DEFINITION =============================================
#  The rest of this file contains ONE line per image, this line contains the following information:
#
#  slice number                             (integer)
#  echo number                              (integer)
#  dynamic scan number                      (integer)
#  cardiac phase number                     (integer)
#  image_type_mr                            (integer)
#  scanning sequence                        (integer)
#  index in REC file (in images)            (integer)
#  image pixel size (in bits)               (integer)
#  scan percentage                          (integer)
#  recon resolution (x y)                   (2*integer)
#  rescale intercept                        (float)
#  rescale slope                            (float)
#  scale slope                              (float)
#  window center                            (integer)
#  window width                             (integer)
#  image angulation (ap,fh,rl in degrees )  (3*float)
#  image offcentre (ap,fh,rl in mm )        (3*float)
#  slice thickness (in mm )                 (float)
#  slice gap (in mm )                       (float)
#  image_display_orientation                (integer)
#  slice orientation ( TRA/SAG/COR )        (integer)
#  fmri_status_indication                   (integer)
#  image_type_ed_es  (end diast/end syst)   (integer)
#  pixel spacing (x,y) (in mm)              (2*float)
#  echo_time                                (float)
#  dyn_scan_begin_time                      (float)
#  trigger_time                             (float)
#  diffusion_b_factor                       (float)
#  number of averages                       (integer)
#  image_flip_angle (in degrees)            (float)
#  cardiac frequency   (bpm)                (integer)
#  minimum RR-interval (in ms)              (integer)
#  maximum RR-interval (in ms)              (integer)
#  TURBO factor  <0=no turbo>               (integer)
#  Inversion delay (in ms)                  (float)
#  diffusion b value number    (imagekey!)  (integer)
#  gradient orientation number (imagekey!)  (integer)
#  contrast type                            (string)
#  diffusion anisotropy type                (string)
#  diffusion (ap, fh, rl)                   (3*float)
#  label type (ASL)            (imagekey!)  (integer)
#
# === IMAGE INFORMATION ==========================================================
#  sl ec  dyn ph ty    idx pix scan% rec size                (re)scale              window        angulation              offcentre        thick   gap   info      spacing     echo     dtime   ttime    diff  avg  flip    freq   RR-int  turbo delay b grad cont anis         diffusion       L.ty

  1   1    1  1 0 2     0  16    78  352  352     0.00000   2.81905 4.92567e-004   289   503   0.00   0.00   0.00  -12.12   29.68   84.25  2.000  0.000 0 2 0 2  0.682  0.682   5.00    0.00     0.00    0.00   1    8.00     0    0    0   240   0.0  1   1    7    0   0.000    0.000    0.000  1
  1   2    1  1 0 2     1  16    78  352  352     0.00000   2.81905 4.92567e-004   306   532   0.00   0.00   0.00  -12.12   29.68   84.25  2.000  0.000 0 2 0 2  0.682  0.682   8.65    0.00     0.00    0.00   1    8.00     0    0    0   240   0.0  1   1    7    0   0.000    0.000    0.000  1
  1   3    1  1 0 2     2  16    78  352  352     0.00000   2.81905 4.92567e-004   298   518   0.00   0.00   0.00  -12.12   29.68   84.25  2.000  0.000 0 2 0 2  0.682  0.682  12.30    0.00     0.00    0.00   1    8.00     0    0    0   240   0.0  1   1    7    0   0.000    0.000    0.000  1
  2   1    1  1 0 2     3  16    78  352  352     0.00000   2.81905 4.92567e-004   333   579   0.00   0.00   0.00  -12.12   29.68   82.25  2.000  0.000 0 2 0 2  0.682  0.682   5.00    0.00     0.00    0.00   1    8.00     0    0    0   240   0.0  1   1    7    0   0.000    0.000    0.000  1
  2   2    1  1 0 2     4  16    78  352  352     0.00000   2.81905 4.92567e-004   351   611   0.00   0.00   0.00  -12.12   29.68   82.25  2.000  0.000 0 2 0 2  0.682  0.682   8.65    0.00     0.00    0.00   1    8.00     0    0    0   240   0.0  1   1    7    0   0.000    0.000    0.000  1
  2   3    1  1 0 2     5  16    78  352  352     0.00000   2.81905 4.92567e-004   321   558   0.00   0.00   0.00  -12.12   29.68   82.25  2.000  0.000 0 2 0 2  0.682  0.682  12.30    0.00     0.00    0.00   1    8.00     0    0    0   240   0.0  1   1    7    0   0.000    0.000    0.000  1
  3   1    1  1 0 2     6  16    78  352  352     0.00000   2.81905 4.92567e-004   382   663   0.00   0.00   0.00  -12.12   29.68   80.25  2.000  0.000 0 2 0 2  0.682  0.682   5.00    0.00     0.00    0.00   1    8.00     0    0    0   240   0.0  1   1    7    0   0.000    0.000    0.000  1
  3   2    1  1 0 2     7  16    78  352  352     0.00000   2.81905 4.92567e-004   390   679   0.00   0.00   0.00  -12.12   29.68   80.25  2.000  0.000 0 2 0 2  0.682  0.682   8.65    0.00     0.00    0.00   1    8.00     0    0    0   240   0.0  1   1    7    0   0.000    0.000    0.000  1
  3   3    1  1 0 2     8  16    78  352  352     0.00000   2.81905 4.92567e-004   336   584   0.00   0.00   0.00  -12.12   29.68   80.25  2.000  0.000 0 2 0 2  0.682  0.682  12.30    0.00     0.00    0.00   1    8.00     0    0    0   240   0.0  1   1    7    0   0.000    0.000    0.000  1
  4   1    1  1 0 2     9  16    78  352  352     0.00000   2.81905 4.92567e-004   447   777   0.00   0.00   0.00  -12.12   29.68   78.25  2.000  0.000 0 2 0 2  0.682  0.682   5.00    0.00     0.00    0.00   1    8.00     0    0    0   240   0.0  1   1    7    0   0.000    0.000    0.000  1
  4   2    1  1 0 2    10  16    78  352  352     0.00000   2.81905 4.92567e-004   454   789   0.00   0.00   0.00  -12.12   29.68   78.25  2.000  0.000 0 2 0 2  0.682  0.682   8.65    0.00     0.00    0.00   1    8.00     0    0    0   240   0.0  1   1    7    0   0.000    0.000    0.000  1
  4   3    1  1 0 2    11  16    78  352  352     0.00000   2.81905 4.92567e-004   392   681   0.00   0.00   0.00  -12.12   29.68   78.25  2.000  0.000 0 2 0 2  0.682  0.682  12.30    0.00     0.00    0.00   1    8.00     0    0    0   240   0.0  1   1    7    0   0.000    0.000    0.000  1
  5   1    1  1 0 2    12  16    78  352  352     0.00000   2.81905 4.92567e-004   486   845   0.00   0.00   0.00  -12.12   29.68   76.25  2.000  0.000 0 2 0 2  0.682  0.682   5.00    0.00     0.00    0.00   1    8.00     0    0    0   240   0.0  1   1    7    0   0.000    0.000    0.000  1
  5   2    1  1 0 2    13  16    78  352  352     0.00000   2.81905 4.92567e-004   510   887   0.00   0.00   0.00  -12.12   29.68   76.25  2.000  0.000 0 2 0 2  0.682  0.682   8.65    0.00     0.00    0.00   1    8.00     0    0    0   240   0.0  1   1    7    0   0.000    0.000    0.000  1
  5   3    1  1 0 2    14  16    78  352  352     0.00000   2.81905 4.92567e-004   435   757   0.00   0.00   0.00  -12.12   29.68   76.25  2.000  0.000 0 2 0 2  0.682  0.682  12.30    0.00     0.00    0.00   1    8.00     0    0    0   240   0.0  1   1    7    0   0.000    0.000    0.000  1
  6   1    1  1 0 2    15  16    78  352  352     0.00000   2.81905 4.92567e-004   548   952   0.00   0.00   0.00  -12.12   29.68   74.25  2.000  0.000 0 2 0 2  0.682  0.682   5.00    0.00     0.00    0.00   1    8.00     0    0    0   240   0.0  1   1    7    0   0.000    0.000    0.000  1
  6   2    1  1 0 2    16  16    78  352  352     0.00000   2.81905 4.92567e-004   557   968   0.00   0.00   0.00  -12.12   29.68   74.25  2.000  0.000 0 2 0 2  0.682  0.682   8.65    0.00     0.00    0.00   1    8.00     0    0    0   240   0.0  1   1    7    0   0.000    0.000    0.000  1
  6   3    1  1 0 2    17  16    78  352  352     0.00000   2.81905 4.92567e-004   477   829   0.00   0.00   0.00  -12.12   29.68   74.25  2.000  0.000 0 2 0 2  0.682  0.682  12.30    0.00     0.00    0.00   1    8.00     0    0    0   240   0.0  1   1    7    0   0.000    0.000    0.000  1
  7   1    1  1 0 2    18  16    78  352  352     0.00000   2.81905 4.92567e-004   597  1037   0.00   0.00   0.00  -12.12   29.68   72.25  2.000  0.000 0 2 0 2  0.682  0.682   5.00    0.00     0.00    0.00   1    8.00     0    0    0   240   0.0  1   1    7    0   0.000    0.000    0.000  1
  7   2    1  1 0 2    19  16    78  352  352     0.00000   2.81905 4.92567e-004   601  1044   0.00   0.00   0.00  -12.12   29.68   72.25  2.000  0.000 0 2 0 2  0.682  0.682   8.65    0.00     0.00    0.00   1    8.00     0    0    0   240   0.0  1   1    7    0   0.000    0.000    0.000  1
  7   3    1  1 0 2    20  16    78  352  352     0.00000   2.81905 4.92567e-004   548   953   0.00   0.00   0.00  -12.12   29.68   72.25  2.000  0.000 0 2 0 2  0.682  0.682  12.30    0.00     0.00    0.00   1    8.00     0    0    0   240   0.0  1   1    7    0   0.000    0.000    0.000  1
  8   1    1  1 0 2    21  16    78  352  352     0.00000   2.81905 4.92567e-004   653  1135   0.00   0.00   0.00  -12.12   29.68   70.25  2.000  0.000 0 2 0 2  0.682  0.682   5.00    0.00     0.00    0.00   1    8.00     0    0    0   240   0.0  1   1    7    0   0.000    0.000    0.000  1
  8   2    1  1 0 2    22  16    78  352  352     0.00000   2.81905 4.92567e-004   664  1154   0.00   0.00   0.00  -12.12   29.68   70.25  2.000  0.000 0 2 0 2  0.682  0.682   8.65    0.00     0.00    0.00   1    8.00     0    0    0   240   0.0  1   1    7    0   0.000    0.000    0.000  1
  8   3    1  1 0 2    23  16    78  352  352     0.00000   2.81905 4.92567e-004   574   997   0.00   0.00   0.00  -12.12   29.68   70.25  2.000  0.000 0 2 0 2  0.682  0.682  12.30    0.00     0.00    0.00   1    8.00     0    0    0   240   0.0  1   1    7    0   0.000    0.000    0.000  1
  9   1    1  1 0 2    24  16    78  352  352     0.00000   2.81905 4.92567e-004   668  1162   0.00   0.00   0.00  -12.12   29.68   68.25  2.000  0.000 0 2 0 2  0.682  0.682   5.00    0.00     0.00    0.00   1    8.00     0    0    0   240   0.0  1   1    7    0   0.000    0.000    0.000  1
  9   2    1  1 0 2    25  16    78  352  352     0.00000   2.81905 4.92567e-004   691  1202   0.00   0.00   0.00  -12.12   29.68   68.25  2.000  0.000 0 2 0 2  0.682  0.682   8.65    0.00     0.00    0.00   1    8.00     0    0    0   240   0.0  1   1    7    0   0.000    0.000    0.000  1
  9   3    1  1 0 2    26  16    78  352  352     0.00000   2.81905 4.92567e-004   614  1067   0.00   0.00   0.00  -12.12   29.68   68.25  2.000  0.000 0 2 0 2  0.682  0.682  12.30    0.00     0.00    0.00   1    8.00     0    0    0   240   0.0  1   1    7    0   0.000    0.000    0.000  1
 10   1    1  1 0 2    27  16    78  352  352     0.00000   2.81905 4.92567e-004   697  1212   0.00   0.00   0.00  -12.12   29.68   66.25  2.000  0.000 0 2 0 2  0.682  0.682   5.00    0.00     0.00    0.00   1    8.00     0    0    0   240   0.0  1   1    7    0   0.000    0.000    0.000  1
 10   2    1  1 0 2    28  16    78  352  352     0.00000   2.81905 4.92567e-004   745  1295   0.00   0.00   0.00  -12.12   29.68   66.25  2.000  0.000 0 2 0 2  0.682  0.682   8.65    0.00     0.00    0.00   1    8.00     0    0    0   240   0.0  1   1    7    0   0.000    0.000    0.000  1
 10   3    1  1 0 2    29  16    78  352  352     0.00000   2.81905 4.92567e-004   640  1112   0.00   0.00   0.00  -12.12   29.68   66.25  2.000  0.000 0 2 0 2  0.682  0.682  12.30    0.00     0.00    0.00   1    8.00     0    0    0   240   0.0  1   1    7    0   0.000    0.000    0.000  1
 11   1    1  1 0 2    30  16    78  352  352     0.00000   2.81905 4.92567e-004   732  1272   0.00   0.00   0.00  -12.12   29.68   64.25  2.000  0.000 0 2 0 2  0.682  0.682   5.00    0.00     0.00    0.00   1    8.00     0    0    0   240   0.0  1   1    7    0   0.000    0.000    0.000  1
 11   2    1  1 0 2    31  16    78  352  352     0.00000   2.81905 4.92567e-004   770  1339   0.00   0.00   0.00  -12.12   29.68   64.25  2.000  0.000 0 2 0 2  0.682  0.682   8.65    0.00     0.00    0.00   1    8.00     0    0    0   240   0.0  1   1    7    0   0.000    0.000    0.000  1
 11   3    1  1 0 2    32  16    78  352  352     0.00000   2.81905 4.92567e-004   648  1126   0.00   0.00   0.00  -12.12   29.68   64.25  2.000  0.000 0 2 0 2  0.682  0.682  12.30    0.00     0.00    0.00   1    8.00     0    0    0   240   0.0  1   1    7    0   0.000    0.000    0.000  1
 12   1    1  1 0 2    33  16    78  352  352     0.00000   2.81905 4.92567e-004   769  1337   0.00   0.00   0.00  -12.12   29.68   62.25  2.000  0.000 0 2 0 2  0.682  0.682   5.00    0.00     0.00    0.00   1    8.00     0    0    0   240   0.0  1   1    7    0   0.000    0.000    0.000  1
 12   2    1  1 0 2    34  16    78  352  352     0.00000   2.81905 4.92567e-004   804  1398   0.00   0.00   0.00  -12.12   29.68   62.25  2.000  0.000 0 2 0 2  0.682  0.682   8.65    0.00     0.00    0.00   1    8.00     0    0    0   240   0.0  1   1    7    0   0.000    0.000    0.000  1
 12   3    1  1 0 2    35  16    78  352  352     0.00000   2.81905 4.92567e-004   681  1183   0.00   0.00   0.00  -12.12   29.68   62.25  2.000  0.000 0 2 0 2  0.682  0.682  12.30    0.00     0.00    0.00   1    8.00     0    0    0   240   0.0  1   1    7    0   0.000    0.000    0.000  1
 13   1    1  1 0 2    36  16    78  352  352     0.00000   2.81905 4.92567e-004   794  1380   0.00   0.00   0.00  -12.12   29.68   60.25  2.000  0.000 0 2 0 2  0.682  0.682   5.00    0.00     0.00    0.00   1    8.00     0    0    0   240   0.0  1   1    7    0   0.000    0.000    0.000  1
 13   2    1  1 0 2    37  16    78  352  352     0.00000   2.81905 4.92567e-004   828  1439   0.00   0.00   0.00  -12.12   29.68   60.25  2.000  0.000 0 2 0 2  0.682  0.682   8.65    0.00     0.00    0.00   1    8.00     0    0    0   240   0.0  1   1    7    0   0.000    0.000    0.000  1
 13   3    1  1 0 2    38  16    78  352  352     0.00000   2.81905 4.92567e-004   698  1214   0.00   0.00   0.00  -12.12   29.68   60.25  2.000  0.000 0 2 0 2  0.682  0.682  12.30    0.00     0.00    0.00   1    8.00     0    0    0   240   0.0  1   1    7    0   0.000    0.000    0.000  1
 14   1    1  1 0 2    39  16    78  352  352     0.00000   2.81905 4.92567e-004   818  1421   0.00   0.00   0.00  -12.12   29.68   58.25  2.000  0.000 0 2 0 2  0.682  0.682   5.00    0.00     0.00    0.00   1    8.00     0    0    0   240   0.0  1   1    7    0   0.000    0.000    0.000  1
 14   2    1  1 0 2    40  16    78  352  352     0.00000   2.81905 4.92567e-004   828  1440   0.00   0.00   0.00  -12.12   29.68   58.25  2.000  0.000 0 2 0 2  0.682  0.682   8.65    0.00     0.00    0.00   1    8.00     0    0    0   240   0.0  1   1    7    0   0.000    0.000    0.000  1
 14   3    1  1 0 2    41  16    78  352  352     0.00000   2.81905 4.92567e-004   707  1229   0.00   0.00   0.00  -12.12   29.68   58.25  2.000  0.000 0 2 0 2  0.682  0.682  12.30    0.00     0.00    0.00   1    8.00     0    0    0   240   0.0  1   1    7    0   0.000    0.000    0.000  1
 15   1    1  1 0 2    42  16    78  352  352     0.00000   2.81905 4.92567e-004   822  1428   0.00   0.00   0.00  -12.12   29.68   56.25  2.000  0.000 0 2 0 2  0.682  0.682   5.00    0.00     0.00    0.00   1    8.00     0    0    0   240   0.0  1   1    7    0   0.000    0.000    0.000  1
 15   2    1  1 0 2    43  16    78  352  352     0.00000   2.81905 4.92567e-004   840  1460   0.00   0.00   0.00  -12.12   29.68   56.25  2.000  0.000 0 2 0 2  0.682  0.682   8.65    0.00     0.00    0.00   1    8.00     0    0    0   240   0.0  1   1    7    0   0.000    0.000    0.000  1
 15   3    1  1 0 2    44  16    78  352  352     0.00000   2.81905 4.92567e-004   692  1202   0.00   0.00   0.00  -12.12   29.68   56.25  2.000  0.000 0 2 0 2  0.682  0.682  12.30    0.00     0.00    0.00   1    8.00     0    0    0   240   0.0  1   1    7    0   0.000    0.000    0.000  1
 16   1    1  1 0 2    45  16    78  352  352     0.00000   2.81905 4.92567e-004   820  1426   0.00   0.00   0.00  -12.12   29.68   54.25  2.000  0.000 0 2 0 2  0.682  0.682   5.00    0.00     0.00    0.00   1    8.00     0    0    0   240   0.0  1   1    7    0   0.000    0.000    0.000  1
 16   2    1  1 0 2    46  16    78  352  352     0.00000   2.81905 4.92567e-004   828  1440   0.00   0.00   0.00  -12.12   29.68   54.25  2.000  0.000 0 2 0 2  0.682  0.682   8.65    0.00     0.00    0.00   1    8.00     0    0    0   240   0.0  1   1    7    0   0.000    0.000    0.000  1
 16   3    1  1 0 2    47  16    78  352  352     0.00000   2.81905 4.92567e-004   689  1197   0.00   0.00   0.00  -12.12   29.68   54.25  2.000  0.000 0 2 0 2  0.682  0.682  12.30    0.00     0.00    0.00   1    8.00     0    0    0   240   0.0  1   1    7    0   0.000    0.000    0.000  1
 17   1    1  1 0 2    48  16    78  352  352     0.00000   2.81905 4.92567e-004   830  1443   0.00   0.00   0.00  -12.12   29.68   52.25  2.000  0.000 0 2 0 2  0.682  0.682   5.00    0.00     0.00    0.00   1    8.00     0    0    0   240   0.0  1   1    7    0   0.000    0.000    0.000  1
 17   2    1  1 0 2    49  16    78  352  352     0.00000   2.81905 4.92567e-004   862  1499   0.00   0.00   0.00  -12.12   29.68   52.25  2.000  0.000 0 2 0 2  0.682  0.682   8.65    0.00     0.00    0.00   1    8.00     0    0    0   240   0.0  1   1    7    0   0.000    0.000    0.000  1
 17   3    1  1 0 2    50  16    78  352  352     0.00000   2.81905 4.92567e-004   705  1225   0.00   0.00   0.00  -12.12   29.68   52.25  2.000  0.000 0 2 0 2  0.682  0.682  12.30    0.00     0.00    0.00   1    8.00     0    0    0   240   0.0  1   1    7    0   0.000    0.000    0.000  1
 18   1    1  1 0 2    51  16    78  352  352     0.00000   2.81905 4.92567e-004   877  1524   0.00   0.00   0.00  -12.12   29.68   50.25  2.000  0.000 0 2 0 2  0.682  0.682   5.00    0.00     0.00    0.00   1    8.00     0    0    0   240   0.0  1   1    7    0   0.000    0.000    0.000  1
 18   2    1  1 0 2    52  16    78  352  352     0.00000   2.81905 4.92567e-004   863  1500   0.00   0.00   0.00  -12.12   29.68   50.25  2.000  0.000 0 2 0 2  0.682  0.682   8.65    0.00     0.00    0.00   1    8.00     0    0    0   240   0.0  1   1    7    0   0.000    0.000    0.000  1
 18   3    1  1 0 2    53  16    78  352  352     0.00000   2.81905 4.92567e-004   708  1231   0.00   0.00   0.00  -12.12   29.68   50.25  2.000  0.000 0 2 0 2  0.682  0.682  12.30    0.00     0.00    0.00   1    8.00     0    0    0   240   0.0  1   1    7    0   0.000    0.000    0.000  1
 19   1    1  1 0 2    54  16    78  352  352     0.00000   2.81905 4.92567e-004   859  1494   0.00   0.00   0.00  -12.12   29.68   48.25  2.000  0.000 0 2 0 2  0.682  0.682   5.00    0.00     0.00    0.00   1    8.00     0    0    0   240   0.0  1   1    7    0   0.000    0.000    0.000  1
 19   2    1  1 0 2    55  16    78  352  352     0.00000   2.81905 4.92567e-004   856  1487   0.00   0.00   0.00  -12.12   29.68   48.25  2.000  0.000 0 2 0 2  0.682  0.682   8.65    0.00     0.00    0.00   1    8.00     0    0    0   240   0.0  1   1    7    0   0.000    0.000    0.000  1
 19   3    1  1 0 2    56  16    78  352  352     0.00000   2.81905 4.92567e-004   705  1225   0.00   0.00   0.00  -12.12   29.68   48.25  2.000  0.000 0 2 0 2  0.682  0.682  12.30    0.00     0.00    0.00   1    8.00     0    0    0   240   0.0  1   1    7    0   0.000    0.000    0.000  1
 20   1    1  1 0 2    57  16    78  352  352     0.00000   2.81905 4.92567e-004   863  1501   0.00   0.00   0.00  -12.12   29.68   46.25  2.000  0.000 0 2 0 2  0.682  0.682   5.00    0.00     0.00    0.00   1    8.00     0    0    0   240   0.0  1   1    7    0   0.000    0.000    0.000  1
 20   2    1  1 0 2    58  16    78  352  352     0.00000   2.81905 4.92567e-004   880  1530   0.00   0.00   0.00  -12.12   29.68   46.25  2.000  0.000 0 2 0 2  0.682  0.682   8.65    0.00     0.00    0.00   1    8.00     0    0    0   240   0.0  1   1    7    0   0.000    0.000    0.000  1
 20   3    1  1 0 2    59  16    78  352  352     0.00000   2.81905 4.92567e-004   724  1258   0.00   0.00   0.00  -12.12   29.68   46.25  2.000  0.000 0 2 0 2  0.682  0.682  12.30    0.00     0.00    0.00   1    8.00     0    0    0   240   0.0  1   1    7    0   0.000    0.000    0.000  1
 21   1    1  1 0 2    60  16    78  352  352     0.00000   2.81905 4.92567e-004   897  1558   0.00   0.00   0.00  -12.12   29.68   44.25  2.000  0.000 0 2 0 2  0.682  0.682   5.00    0.00     0.00    0.00   1    8.00     0    0    0   240   0.0  1   1    7    0   0.000    0.000    0.000  1
 21   2    1  1 0 2    61  16    78  352  352     0.00000   2.81905 4.92567e-004   897  1559   0.00   0.00   0.00  -12.12   29.68   44.25  2.000  0.000 0 2 0 2  0.682  0.682   8.65    0.00     0.00    0.00   1    8.00     0    0    0   240   0.0  1   1    7    0   0.000    0.000    0.000  1
 21   3    1  1 0 2    62  16    78  352  352     0.00000   2.81905 4.92567e-004   741  1289   0.00   0.00   0.00  -12.12   29.68   44.25  2.000  0.000 0 2 0 2  0.682  0.682  12.30    0.00     0.00    0.00   1    8.00     0    0    0   240   0.0  1   1    7    0   0.000    0.000    0.000  1
 22   1    1  1 0 2    63  16    78  352  352     0.00000   2.81905 4.92567e-004   878  1525   0.00   0.00   0.00  -12.12   29.68   42.25  2.000  0.000 0 2 0 2  0.682  0.682   5.00    0.00     0.00    0.00   1    8.00     0    0    0   240   0.0  1   1    7    0   0.000    0.000    0.000  1
 22   2    1  1 0 2    64  16    78  352  352     0.00000   2.81905 4.92567e-004   891  1549   0.00   0.00   0.00  -12.12   29.68   42.25  2.000  0.000 0 2 0 2  0.682  0.682   8.65    0.00     0.00    0.00   1    8.00     0    0    0   240   0.0  1   1    7    0   0.000    0.000    0.000  1
 22   3    1  1 0 2    65  16    78  352  352     0.00000   2.81905 4.92567e-004   731  1270   0.00   0.00   0.00  -12.12   29.68   42.25  2.000  0.000 0 2 0 2  0.682  0.682  12.30    0.00     0.00    0.00   1    8.00     0    0    0   240   0.0  1   1    7    0   0.000    0.000    0.000  1
 23   1    1  1 0 2    66  16    78  352  352     0.00000   2.81905 4.92567e-004   913  1586   0.00   0.00   0.00  -12.12   29.68   40.25  2.000  0.000 0 2 0 2  0.682  0.682   5.00    0.00     0.00    0.00   1    8.00     0    0    0   240   0.0  1   1    7    0   0.000    0.000    0.000  1
 23   2    1  1 0 2    67  16    78  352  352     0.00000   2.81905 4.92567e-004   893  1553   0.00   0.00   0.00  -12.12   29.68   40.25  2.000  0.000 0 2 0 2  0.682  0.682   8.65    0.00     0.00    0.00   1    8.00     0    0    0   240   0.0  1   1    7    0   0.000    0.000    0.000  1
 23   3    1  1 0 2    68  16    78  352  352     0.00000   2.81905 4.92567e-004   746  1296   0.00   0.00   0.00  -12.12   29.68   40.25  2.000  0.000 0 2 0 2  0.682  0.682  12.30    0.00     0.00    0.00   1    8.00     0    0    0   240   0.0  1   1    7    0   0.000    0.000    0.000  1
 24   1    1  1 0 2    69  16    78  352  352     0.00000   2.81905 4.92567e-004   918  1597   0.00   0.00   0.00  -12.12   29.68   38.25  2.000  0.000 0 2 0 2  0.682  0.682   5.00    0.00     0.00    0.00   1    8.00     0    0    0   240   0.0  1   1    7    0   0.000    0.000    0.000  1
 24   2    1  1 0 2    70  16    78  352  352     0.00000   2.81905 4.92567e-004   900  1564   0.00   0.00   0.00  -12.12   29.68   38.25  2.000  0.000 0 2 0 2  0.682  0.682   8.65    0.00     0.00    0.00   1    8.00     0    0    0   240   0.0  1   1    7    0   0.000    0.000    0.000  1
 24   3    1  1 0 2    71  16    78  352  352     0.00000   2.81905 4.92567e-004   796  1384   0.00   0.00   0.00  -12.12   29.68   38.25  2.000  0.000 0 2 0 2  0.682  0.682  12.30    0.00     0.00    0.00   1    8.00     0    0    0   240   0.0  1   1    7    0   0.000    0.000    0.000  1
 25   1    1  1 0 2    72  16    78  352  352     0.00000   2.81905 4.92567e-004   959  1668   0.00   0.00   0.00  -12.12   29.68   36.25  2.000  0.000 0 2 0 2  0.682  0.682   5.00    0.00     0.00    0.00   1    8.00     0    0    0   240   0.0  1   1    7    0   0.000    0.000    0.000  1
 25   2    1  1 0 2    73  16    78  352  352     0.00000   2.81905 4.92567e-004   976  1696   0.00   0.00   0.00  -12.12   29.68   36.25  2.000  0.000 0 2 0 2  0.682  0.682   8.65    0.00     0.00    0.00   1    8.00     0    0    0   240   0.0  1   1    7    0   0.000    0.000    0.000  1
 25   3    1  1 0 2    74  16    78  352  352     0.00000   2.81905 4.92567e-004   884  1537   0.00   0.00   0.00  -12.12   29.68   36.25  2.000  0.000 0 2 0 2  0.682  0.682  12.30    0.00     0.00    0.00   1    8.00     0    0    0   240   0.0  1   1    7    0   0.000    0.000    0.000  1
 26   1    1  1 0 2    75  16    78  352  352     0.00000   2.81905 4.92567e-004  1145  1990   0.00   0.00   0.00  -12.12   29.68   34.25  2.000  0.000 0 2 0 2  0.682  0.682   5.00    0.00     0.00    0.00   1    8.00     0    0    0   240   0.0  1   1    7    0   0.000    0.000    0.000  1
 26   2    1  1 0 2    76  16    78  352  352     0.00000   2.81905 4.92567e-004  1093  1900   0.00   0.00   0.00  -12.12   29.68   34.25  2.000  0.000 0 2 0 2  0.682  0.682   8.65    0.00     0.00    0.00   1    8.00     0    0    0   240   0.0  1   1    7    0   0.000    0.000    0.000  1
 26   3    1  1 0 2    77  16    78  352  352     0.00000   2.81905 4.92567e-004   881  1532   0.00   0.00   0.00  -12.12   29.68   34.25  2.000  0.000 0 2 0 2  0.682  0.682  12.30    0.00     0.00    0.00   1    8.00     0    0    0   240   0.0  1   1    7    0   0.000    0.000    0.000  1
 27   1    1  1 0 2    78  16    78  352  352     0.00000   2.81905 4.92567e-004  1392  2419   0.00   0.00   0.00  -12.12   29.68   32.25  2.000  0.000 0 2 0 2  0.682  0.682   5.00    0.00     0.00    0.00   1    8.00     0    0    0   240   0.0  1   1    7    0   0.000    0.000    0.000  1
 27   2    1  1 0 2    79  16    78  352  352     0.00000   2.81905 4.92567e-004  1441  2505   0.00   0.00   0.00  -12.12   29.68   32.25  2.000  0.000 0 2 0 2  0.682  0.682   8.65    0.00     0.00    0.00   1    8.00     0    0    0   240   0.0  1   1    7    0   0.000    0.000    0.000  1
 27   3    1  1 0 2    80  16    78  352  352     0.00000   2.81905 4.92567e-004  1074  1866   0.00   0.00   0.00  -12.12   29.68   32.25  2.000  0.000 0 2 0 2  0.682  0.682  12.30    0.00     0.00    0.00   1    8.00     0    0    0   240   0.0  1   1    7    0   0.000    0.000    0.000  1
 28   1    1  1 0 2    81  16    78  352  352     0.00000   2.81905 4.92567e-004  1384  2405   0.00   0.00   0.00  -12.12   29.68   30.25  2.000  0.000 0 2 0 2  0.682  0.682   5.00    0.00     0.00    0.00   1    8.00     0    0    0   240   0.0  1   1    7    0   0.000    0.000    0.000  1
 28   2    1  1 0 2    82  16    78  352  352     0.00000   2.81905 4.92567e-004  1433  2491   0.00   0.00   0.00  -12.12   29.68   30.25  2.000  0.000 0 2 0 2  0.682  0.682   8.65    0.00     0.00    0.00   1    8.00     0    0    0   240   0.0  1   1    7    0   0.000    0.000    0.000  1
 28   3    1  1 0 2    83  16    78  352  352     0.00000   2.81905 4.92567e-004  1142  1984   0.00   0.00   0.00  -12.12   29.68   30.25  2.000  0.000 0 2 0 2  0.682  0.682  12.30    0.00     0.00    0.00   1    8.00     0    0    0   240   0.0  1   1    7    0   0.000    0.000    0.000  1
